#Parameters = {P=600; R=140; deta_h=25; eps_Al2O3=1; eps_substrate=1; h=750; phi=0; theta=0}
#"Frequency / THz"	"SZmin(1),Zmax(1) [Mag]"	"SZmin(1),Zmax(1) [Pha in deg.]"
#---------------------------------------------------------------------------
200.00000000000	0.96602894333308	-6.2422241627103
200.10000000000	0.96634409382527	-7.0936237469779
200.20000000000	0.96669533639914	-7.9518949203178
200.30000000000	0.96708424465699	-8.8174645799663
200.40000000000	0.96751240423988	-9.6907898137787
200.50000000000	0.96798140761774	-10.572360496548
200.60000000000	0.96849284754607	-11.462702155864
200.70000000000	0.96904830891123	-12.362379139557
200.80000000000	0.96964935863476	-13.271998120742
200.90000000000	0.97029753323490	-14.192211981878
201.00000000000	0.97099432356465	-15.123724123906
201.10000000000	0.97174115614409	-16.067293253664
201.20000000000	0.97253937038202	-17.023738709328
201.30000000000	0.97339019083266	-17.993946392278
201.40000000000	0.97429469345171	-18.978875382577
201.50000000000	0.97525376459356	-19.979565326747
201.60000000000	0.97626805121792	-20.997144697527
201.70000000000	0.97733790043896	-22.032840039979
201.80000000000	0.97846328613320	-23.087986333414
201.90000000000	0.97964371982766	-24.164038615589
202.00000000000	0.98087814244652	-25.262585035984
202.10000000000	0.98216479273935	-26.385361525330
202.20000000000	0.98350104725420	-27.534268292899
202.30000000000	0.98488322554941	-28.711388387323
202.40000000000	0.98630635288545	-29.919008583344
202.50000000000	0.98776387086347	-31.159642882588
202.60000000000	0.98924728426693	-32.436058941277
202.70000000000	0.99074572970954	-33.751307756841
202.80000000000	0.99224544835792	-35.108756957098
202.90000000000	0.99372914108313	-36.512128031067
203.00000000000	0.99517517957056	-37.965537810998
203.10000000000	0.99655664129446	-39.473544447796
203.20000000000	0.99784012968447	-41.041197993969
203.30000000000	0.99898433341598	-42.674095493161
203.40000000000	0.99993827079193	-44.378440129840
203.50000000000	1.0000000000000	-46.161103461293
203.60000000000	1.0000000000000	-48.029688957600
203.70000000000	1.0000000000000	-49.992593908823
203.80000000000	1.0000000000000	-52.059065088016
203.90000000000	0.99908403300633	-54.239241214856
204.00000000000	0.99695363161945	-56.544172057241
204.10000000000	0.99376188994119	-58.985799746743
204.20000000000	0.98925915118818	-61.576882438469
204.30000000000	0.98314784200665	-64.330833866289
204.40000000000	0.97507720000928	-67.261445060510
204.50000000000	0.96463982978992	-70.382447645612
204.60000000000	0.95137178496574	-73.706874006184
204.70000000000	0.93475851142996	-77.246172118992
204.80000000000	0.91424955320289	-81.009047803829
204.90000000000	0.88928512332398	-85.000041713029
205.00000000000	0.85933701823305	-89.217908904485
205.10000000000	0.82396435716697	-93.653956170569
205.20000000000	0.78288088381509	-98.290594819285
205.30000000000	0.73602534188779	-103.10045402060
205.40000000000	0.68362112501022	-108.04642435544
205.50000000000	0.62620856542413	-113.08291416129
205.60000000000	0.56463563377486	-118.15838566635
205.70000000000	0.50000155221945	-123.21894106891
205.80000000000	0.43356062570679	-128.21246643732
205.90000000000	0.36660526545381	-133.09276027411
206.00000000000	0.30035239786468	-137.82331207456
206.10000000000	0.23585417937001	-142.38117827285
206.20000000000	0.17394453477088	-146.76376494680
206.30000000000	0.11522237763649	-151.01209982523
206.40000000000	0.060065320439953	-155.35527191163
206.50000000000	0.0087105450883414	-165.29585815807
206.60000000000	0.039019986593307	20.378873699095
206.70000000000	0.082960543112973	16.330614877801
206.80000000000	0.12337495305239	13.098544538348
206.90000000000	0.16046693041547	10.183042310053
207.00000000000	0.19446978725679	7.4872049138251
207.10000000000	0.22562664884038	4.9714345703683
207.20000000000	0.25417874747346	2.6119589770533
207.30000000000	0.28035800085722	0.39128019406189
207.40000000000	0.30438260056932	-1.7048425623819
207.50000000000	0.32645471538022	-3.6885705867364
207.60000000000	0.34675963563117	-5.5705342444588
207.70000000000	0.36546586123954	-7.3601348322575
207.80000000000	0.38272577627382	-9.0657381371608
207.90000000000	0.39867666082371	-10.694814872602
208.00000000000	0.41344187093395	-12.254051703408
208.10000000000	0.42713207516476	-13.749443760665
208.20000000000	0.43984647710104	-15.186374039439
208.30000000000	0.45167398129267	-16.569682604563
208.40000000000	0.46269427912419	-17.903727378412
208.50000000000	0.47297884368839	-19.192437727577
208.60000000000	0.48259183081112	-20.439361771834
208.70000000000	0.49159088834559	-21.647708175524
208.80000000000	0.50002787879194	-22.820383070776
208.90000000000	0.50794952179080	-23.960022684360
209.00000000000	0.51539796371791	-25.069022173200
209.10000000000	0.52241128164492	-26.149561118104
209.20000000000	0.52902392870060	-27.203626074040
209.30000000000	0.53526712739321	-28.233030530048
209.40000000000	0.54116921691732	-29.239432590464
209.50000000000	0.54675595988879	-30.224350652192
209.60000000000	0.55205081337173	-31.189177319618
209.70000000000	0.55707516852966	-32.135191769148
209.80000000000	0.56184856271232	-33.063570749607
209.90000000000	0.56638886734709	-33.975398380924
210.00000000000	0.57071245457961	-34.871674894263
210.10000000000	0.57483434524801	-35.753324438080
210.20000000000	0.57876834045221	-36.621202059724
210.30000000000	0.58252713869017	-37.476099958037
210.40000000000	0.58612244029021	-38.318753091256
210.50000000000	0.58956504064322	-39.149844213208
210.60000000000	0.59286491355790	-39.970008403029
210.70000000000	0.59603128588645	-40.779837144318
210.80000000000	0.59907270443323	-41.579882004277
210.90000000000	0.60199709602717	-42.370657956109
211.00000000000	0.60481182153441	-43.152646383633
211.10000000000	0.60752372448805	-43.926297802064
211.20000000000	0.61013917493564	-44.692034324947
211.30000000000	0.61266410902435	-45.450251904076
211.40000000000	0.61510406479133	-46.201322365693
211.50000000000	0.61746421456285	-46.945595263938
211.60000000000	0.61974939432411	-47.683399570082
211.70000000000	0.62196413037693	-48.415045213912
211.80000000000	0.62411266356577	-49.140824492025
211.90000000000	0.62619897132390	-49.861013355915
212.00000000000	0.62822678775827	-50.575872591634
212.10000000000	0.63019962197100	-51.285648901290
212.20000000000	0.63212077479219	-51.990575895741
212.30000000000	0.63399335407964	-52.690875006777
212.40000000000	0.63582028872422	-53.386756326236
212.50000000000	0.63760434148512	-54.078419378750
212.60000000000	0.63934812076577	-54.766053834127
212.70000000000	0.64105409142969	-55.449840164780
212.80000000000	0.64272458474526	-56.129950253075
212.90000000000	0.64436180753922	-56.806547952981
213.00000000000	0.64596785063059	-57.479789609991
213.10000000000	0.64754469660962	-58.149824542902
213.20000000000	0.64909422701977	-58.816795490690
213.30000000000	0.65061822899524	-59.480839027418
213.40000000000	0.65211840140114	-60.142085947837
213.50000000000	0.65359636051914	-60.800661626124
213.60000000000	0.65505364531744	-61.456686349894
213.70000000000	0.65649172233956	-62.110275631570
213.80000000000	0.65791199024416	-62.761540498841
213.90000000000	0.65931578402455	-63.410587765946
214.00000000000	0.66070437893382	-64.057520287249
214.10000000000	0.66207899413994	-64.702437194500
214.20000000000	0.66344079613154	-65.345434119060
214.30000000000	0.66479090189522	-65.986603400267
214.40000000000	0.66613038188177	-66.626034280891
214.50000000000	0.66746026277741	-67.263813090866
214.60000000000	0.66878153009601	-67.900023419945
214.70000000000	0.67009513060493	-68.534746280300
214.80000000000	0.67140197459833	-69.168060259724
214.90000000000	0.67270293802827	-69.800041666128
215.00000000000	0.67399886450457	-70.430764664040
215.10000000000	0.67529056717379	-71.060301403600
215.20000000000	0.67657883048527	-71.688722142763
215.30000000000	0.67786441185296	-72.316095362976
215.40000000000	0.67914804322079	-72.942487879052
215.50000000000	0.68043043253773	-73.567964943482
215.60000000000	0.68171226515036	-74.192590345738
215.70000000000	0.68299420511724	-74.816426506813
215.80000000000	0.68427689645171	-75.439534569416
215.90000000000	0.68556096429783	-76.061974484215
216.00000000000	0.68684701604405	-76.683805092246
216.10000000000	0.68813564237925	-77.305084203997
216.20000000000	0.68942741829501	-77.925868675255
216.30000000000	0.69072290403734	-78.546214480078
216.40000000000	0.69202264601284	-79.166176781071
216.50000000000	0.69332717765080	-79.785809997224
216.60000000000	0.69463702022451	-80.405167869495
216.70000000000	0.69595268363680	-81.024303524369
216.80000000000	0.69727466716919	-81.643269535538
216.90000000000	0.69860346019884	-82.262117983941
217.00000000000	0.69993954288596	-82.880900516275
217.10000000000	0.70128338683314	-83.499668402204
217.20000000000	0.70263545571756	-84.118472590363
217.30000000000	0.70399620590121	-84.737363763363
217.40000000000	0.70536608701693	-85.356392391918
217.50000000000	0.70674554253457	-85.975608788236
217.60000000000	0.70813501030820	-86.595063158833
217.70000000000	0.70953492310528	-87.214805656889
217.80000000000	0.71094570911997	-87.834886434290
217.90000000000	0.71236779247174	-88.455355693465
218.00000000000	0.71380159368968	-89.076263739256
218.10000000000	0.71524753018540	-89.697661030738
218.20000000000	0.71670601671331	-90.319598233383
218.30000000000	0.71817746582213	-90.942126271462
218.40000000000	0.71966228829592	-91.565296381033
218.50000000000	0.72116089358813	-92.189160163425
218.60000000000	0.72267369024694	-92.813769639566
218.70000000000	0.72420108633546	-93.439177305173
218.80000000000	0.72574348984633	-94.065436186958
218.90000000000	0.72730130910992	-94.692599900048
219.00000000000	0.72887495320113	-95.320722706713
219.10000000000	0.73046483234102	-95.949859576622
219.20000000000	0.73207135829690	-96.580066248712
219.30000000000	0.73369494478041	-97.211399294935
219.40000000000	0.73533600784436	-97.843916185970
219.50000000000	0.73699496627990	-98.477675359172
219.60000000000	0.73867224201243	-99.112736288887
219.70000000000	0.74036826049948	-99.749159559374
219.80000000000	0.74208345112915	-100.38700694056
219.90000000000	0.74381824762057	-101.02634146682
220.00000000000	0.74557308842696	-101.66722751912
220.10000000000	0.74734841714080	-102.30973091065
220.20000000000	0.74914468290221	-102.95391897631
220.30000000000	0.75096234081145	-103.59986066637
220.40000000000	0.75280185234500	-104.24762664457
220.50000000000	0.75466368577485	-104.89728939094
220.60000000000	0.75654831659386	-105.54892330991
220.70000000000	0.75845622794387	-106.20260484378
220.80000000000	0.76038791104923	-106.85841259229
220.90000000000	0.76234386565476	-107.51642743853
221.00000000000	0.76432460046848	-108.17673268170
221.10000000000	0.76633063360733	-108.83941417731
221.20000000000	0.76836249304829	-109.50456048528
221.30000000000	0.77042071708144	-110.17226302663
221.40000000000	0.77250585476687	-110.84261624934
221.50000000000	0.77461846639225	-111.51571780404
221.60000000000	0.77675912393185	-112.19166873047
221.70000000000	0.77892841150485	-112.87057365528
221.80000000000	0.78112692583043	-113.55254100219
221.90000000000	0.78335527667975	-114.23768321554
222.00000000000	0.78561408732011	-114.92611699802
222.10000000000	0.78790399494961	-115.61796356401
222.20000000000	0.79022565111910	-116.31334890952
222.30000000000	0.79257972213645	-117.01240410021
222.40000000000	0.79496688944907	-117.71526557882
222.50000000000	0.79738784999882	-118.42207549371
222.60000000000	0.79984331654311	-119.13298205017
222.70000000000	0.80233401793359	-119.84813988634
222.80000000000	0.80486069934494	-120.56771047589
222.90000000000	0.80742412244210	-121.29186255963
223.00000000000	0.81002506547438	-122.02077260851
223.10000000000	0.81266432328238	-122.75462532072
223.20000000000	0.81534270720122	-123.49361415581
223.30000000000	0.81806104484120	-124.23794190909
223.40000000000	0.82082017972332	-124.98782132970
223.50000000000	0.82362097074482	-125.74347578654
223.60000000000	0.82646429144410	-126.50513998590
223.70000000000	0.82935102903074	-127.27306074587
223.80000000000	0.83228208314060	-128.04749783245
223.90000000000	0.83525836426848	-128.82872486309
224.00000000000	0.83828079182501	-129.61703028399
224.10000000000	0.84135029175348	-130.41271842792
224.20000000000	0.84446779363377	-131.21611066030
224.30000000000	0.84763422718723	-132.02754662185
224.40000000000	0.85085051808300	-132.84738557711
224.50000000000	0.85411758292903	-133.67600787907
224.60000000000	0.85743632331237	-134.51381656121
224.70000000000	0.86080761872991	-135.36123906956
224.80000000000	0.86423231822452	-136.21872914843
224.90000000000	0.86771123050996	-137.08676889540
225.00000000000	0.87124511233078	-137.96587100224
225.10000000000	0.87483465476065	-138.85658120066
225.20000000000	0.87848046709055	-139.75948093362
225.30000000000	0.88218305789843	-140.67519027500
225.40000000000	0.88594281282039	-141.60437112298
225.50000000000	0.88975996845937	-142.54773069512
225.60000000000	0.89363458176760	-143.50602535576
225.70000000000	0.89756649412152	-144.48006480969
225.80000000000	0.90155528916860	-145.47071669920
225.90000000000	0.90560024336038	-146.47891164509
226.00000000000	0.90970026789139	-147.50564877608
226.10000000000	0.91385384053229	-148.55200179457
226.20000000000	0.91805892557282	-149.61912563073
226.30000000000	0.92231287976744	-150.70826374033
226.40000000000	0.92661234179556	-151.82075610521
226.50000000000	0.93095310229995	-152.95804799774
226.60000000000	0.93532995103966	-154.12169957232
226.70000000000	0.93973649707683	-155.31339634698
226.80000000000	0.94416495719761	-156.53496063551
226.90000000000	0.94860590693416	-157.78836398481
227.00000000000	0.95304798759781	-159.07574066112
227.10000000000	0.95747756164513	-160.39940221149
227.20000000000	0.96187830748006	-161.76185309964
227.30000000000	0.96623074345718	-163.16580737604
227.40000000000	0.97051166942514	-164.61420628568
227.50000000000	0.97469351269359	-166.11023663790
227.60000000000	0.97874356392898	-167.65734965461
227.70000000000	0.98262308735108	-169.25927986576
227.80000000000	0.98628628898373	-170.92006342485
227.90000000000	0.98967912700811	-172.64405495742
228.00000000000	0.99273795006548	-174.43594171739
228.10000000000	0.99538795349853	-176.30075339207
228.20000000000	0.99754145117134	-178.24386534856
228.30000000000	0.99909597323504	179.72900756321
228.40000000000	0.99993222003813	177.61183035152
228.50000000000	0.99991193180872	175.39828501781
228.60000000000	0.99887577560481	173.08183118526
228.70000000000	0.99664140818517	170.65579699612
228.80000000000	0.99300194804058	168.11350801211
228.90000000000	0.98772518198149	165.44846245798
229.00000000000	0.98055393750518	162.65456104221
229.10000000000	0.97120816083222	159.72639827228
229.20000000000	0.95938933079389	156.65961902931
229.30000000000	0.94478787594632	153.45133849739
229.40000000000	0.92709419737377	150.10061479161
229.50000000000	0.90601367410105	146.60895163758
229.60000000000	0.88128558806423	142.98079388661
229.70000000000	0.85270522833122	139.22396342246
229.80000000000	0.82014756334370	135.34997055685
229.90000000000	0.78358994806078	131.37413101381
230.00000000000	0.74313060835327	127.31542597369
230.10000000000	0.69899942629671	123.19606562481
230.20000000000	0.65155809823971	119.04075461344
230.30000000000	0.60128812544206	114.87570473679
230.40000000000	0.54876710573621	110.72748549044
230.50000000000	0.49463592833384	106.62183429084
230.60000000000	0.43956112250747	102.58255590311
230.70000000000	0.38419729630566	98.630622192154
230.80000000000	0.32915417680640	94.783543899971
230.90000000000	0.27497145423409	91.055035667317
231.00000000000	0.22210290707811	87.454942208186
231.10000000000	0.17090964327514	83.989330729990
231.20000000000	0.12166108606019	80.660506128363
231.30000000000	0.074541696767936	77.465869305483
231.40000000000	0.029661310466272	74.382842022652
231.50000000000	0.012932883248060	-108.34409204701
231.60000000000	0.053243758505429	-111.22943752298
231.70000000000	0.091313092334502	-113.90583756243
231.80000000000	0.12721094904304	-116.45748004442
231.90000000000	0.16102711173871	-118.89659226101
232.00000000000	0.19286395975991	-121.23129547962
232.10000000000	0.22283085244213	-123.46878799591
232.20000000000	0.25103982136101	-125.61583213024
232.30000000000	0.27760236127296	-127.67884496929
232.40000000000	0.30262711176313	-129.66391026580
232.50000000000	0.32621823863611	-131.57677812975
232.60000000000	0.34847434779957	-133.42286890490
232.70000000000	0.36948778902612	-135.20728499057
232.80000000000	0.38934422889150	-136.93483106312
232.90000000000	0.40812238896468	-138.61004268167
233.00000000000	0.42589385490535	-140.23722389681
233.10000000000	0.44272286180592	-141.82049582418
233.20000000000	0.45866594614111	-143.36386035496
233.30000000000	0.47377131564675	-144.87128687779
233.40000000000	0.48807770580490	-146.34683646999
233.50000000000	0.50161232307046	-147.79485048379
233.60000000000	0.51438712401688	-149.22025561123
233.70000000000	0.52639191078447	-150.62909187368
233.80000000000	0.53758091273562	-152.02949712435
233.90000000000	0.54784483895777	-153.43370908822
234.00000000000	0.55694668222215	-154.86259897745
234.10000000000	0.56435231683203	-156.35751525592
234.20000000000	0.56868102255355	-158.01831748388
234.30000000000	0.56519294862458	-160.17469255638
234.40000000000	0.52126654609297	-164.99494511437
234.50000000000	0.80014786882252	-145.21319051268
234.60000000000	0.67628275775355	-157.65947159420
234.70000000000	0.66540480092550	-160.28081652322
234.80000000000	0.66608894944441	-161.98464111291
234.90000000000	0.67015506833843	-163.40240441273
235.00000000000	0.67556616773607	-164.68939171826
235.10000000000	0.68158014326627	-165.90270747165
235.20000000000	0.68786627031628	-167.06852047493
235.30000000000	0.69425781557060	-168.20068206316
235.40000000000	0.70066374074209	-169.30732965010
235.50000000000	0.70703172001746	-170.39364370378
235.60000000000	0.71333077069604	-171.46314171525
235.70000000000	0.71954236066130	-172.51834194131
235.80000000000	0.72565553917769	-173.56112862711
235.90000000000	0.73166412377543	-174.59296479468
236.00000000000	0.73756500273634	-175.61502228327
236.10000000000	0.74335707358747	-176.62826452287
236.20000000000	0.74904055954128	-177.63350111619
236.30000000000	0.75461655856904	-178.63142496873
236.40000000000	0.76008674003482	-179.62263825818
236.50000000000	0.76545313737974	179.39232894147
236.60000000000	0.77071800473747	178.41300499586
236.70000000000	0.77588371693011	177.43896647399
236.80000000000	0.78095269939249	176.46983033117
236.90000000000	0.78592737904030	175.50524783274
237.00000000000	0.79081014997248	174.54489975292
237.10000000000	0.79560334978715	173.58849252306
237.20000000000	0.80030924355297	172.63575509794
237.30000000000	0.80493001333708	171.68643637288
237.40000000000	0.80946775178353	170.74030302912
237.50000000000	0.81392445865077	169.79713771643
237.60000000000	0.81830203951070	168.85673750444
237.70000000000	0.82260230602205	167.91891255044
237.80000000000	0.82682697734332	166.98348494346
237.90000000000	0.83097768236135	166.05028769324
238.00000000000	0.83505596249376	165.11916383943
238.10000000000	0.83906327488389	164.18996566131
238.20000000000	0.84300099585222	163.26255397239
238.30000000000	0.84687042450251	162.33679748698
238.40000000000	0.85067278640605	161.41257224842
238.50000000000	0.85440923730732	160.48976111021
238.60000000000	0.85808086680872	159.56825326310
238.70000000000	0.86168870200359	158.64794380196
238.80000000000	0.86523371103509	157.72873332749
238.90000000000	0.86871680656510	156.81052757850
239.00000000000	0.87213884914237	155.89323709104
239.10000000000	0.87550065046285	154.97677688127
239.20000000000	0.87880297651806	154.06106614934
239.30000000000	0.88204655062942	153.14602800194
239.40000000000	0.88523205636829	152.23158919133
239.50000000000	0.88836014036247	151.31767986917
