#Parameters = {P=600; R=140; deta_h=25; eps_Al2O3=1; eps_substrate=1; h=750; phi=0; theta=0}
#"Frequency / THz"	"SZmin(1),Zmax(1) [Mag]"	"SZmin(1),Zmax(1) [Pha in deg.]"
#---------------------------------------------------------------------------
200.00000000000	0.98680333932606	20.297149057127
200.10000000000	0.98632738091889	19.544446646617
200.20000000000	0.98584744429008	18.791504441272
200.30000000000	0.98536404447780	18.038292341562
200.40000000000	0.98487770370810	17.284778513584
200.50000000000	0.98438895152760	16.530929318618
200.60000000000	0.98389832495098	15.776709238625
200.70000000000	0.98340636862343	15.022080797380
200.80000000000	0.98291363499903	14.267004476930
200.90000000000	0.98242068453556	13.511438629025
201.00000000000	0.98192808590641	12.755339381160
201.10000000000	0.98143641623025	11.998660536821
201.20000000000	0.98094626131918	11.241353469497
201.30000000000	0.98045821594597	10.483367009995
201.40000000000	0.97997288413116	9.7246473265481
201.50000000000	0.97949087945056	8.9651377971527
201.60000000000	0.97901282536406	8.2047788735479
201.70000000000	0.97853935556612	7.4435079361778
201.80000000000	0.97807111435890	6.6812591394274
201.90000000000	0.97760875704841	5.9179632463658
202.00000000000	0.97715295036447	5.1535474521474
202.10000000000	0.97670437290483	4.3879351951643
202.20000000000	0.97626371560415	3.6210459549422
202.30000000000	0.97583168222812	2.8527950356903
202.40000000000	0.97540898989303	2.0830933343128
202.50000000000	0.97499636961102	1.3118470915700
202.60000000000	0.97459456686111	0.53895762496141
202.70000000000	0.97420434218575	-0.23567895824251
202.80000000000	0.97382647181253	-1.0121720695424
202.90000000000	0.97346174830047	-1.7906369712204
203.00000000000	0.97311098120988	-2.5711951339057
203.10000000000	0.97277499779428	-3.3539746219863
203.20000000000	0.97245464371264	-4.1391105094009
203.30000000000	0.97215078375937	-4.9267453286041
203.40000000000	0.97186430260886	-5.7170295557892
203.50000000000	0.97159610557060	-6.5101221357883
203.60000000000	0.97134711934972	-7.3061910504278
203.70000000000	0.97111829280680	-8.1054139345382
203.80000000000	0.97091059770909	-8.9079787442775
203.90000000000	0.97072502946378	-9.7140844829448
204.00000000000	0.97056260782176	-10.523941990059
204.10000000000	0.97042437753786	-11.337774800122
204.20000000000	0.97031140897069	-12.155820078259
204.30000000000	0.97022479860144	-12.978329640737
204.40000000000	0.97016566944722	-13.805571069377
204.50000000000	0.97013517133908	-14.637828929897
204.60000000000	0.97013448102898	-15.475406105517
204.70000000000	0.97016480208302	-16.318625258536
204.80000000000	0.97022736450928	-17.167830434189
204.90000000000	0.97032342405859	-18.023388822962
205.00000000000	0.97045426112402	-18.885692699597
205.10000000000	0.97062117915031	-19.755161559453
205.20000000000	0.97082550244622	-20.632244475641
205.30000000000	0.97106857327180	-21.517422703537
205.40000000000	0.97135174804652	-22.411212562920
205.50000000000	0.97167639249300	-23.314168632236
205.60000000000	0.97204387549382	-24.226887294371
205.70000000000	0.97245556139299	-25.150010679005
205.80000000000	0.97291280041924	-26.084231053211
205.90000000000	0.97341691684113	-27.030295719653
206.00000000000	0.97396919438349	-27.989012490735
206.10000000000	0.97457085833633	-28.961255817535
206.20000000000	0.97522305366807	-29.947973664731
206.30000000000	0.97592681830941	-30.950195237201
206.40000000000	0.97668305059731	-31.969039681160
206.50000000000	0.97749246965240	-33.005725902947
206.60000000000	0.97835556720025	-34.061583672706
206.70000000000	0.97927254902580	-35.138066208910
206.80000000000	0.98024326385888	-36.236764474132
206.90000000000	0.98126711701303	-37.359423453825
207.00000000000	0.98234296552054	-38.507960739968
207.10000000000	0.98346899080624	-39.684487802367
207.20000000000	0.98464254409730	-40.891334405080
207.30000000000	0.98585995875447	-42.131076717803
207.40000000000	0.98711632251102	-43.406569787393
207.50000000000	0.98840520120478	-44.720985180552
207.60000000000	0.98971830398977	-46.077854795817
207.70000000000	0.99104507825290	-47.481122087258
207.80000000000	0.99237222063795	-48.935202267828
207.90000000000	0.99368308890957	-50.445053504386
208.00000000000	0.99495699829604	-52.016261739128
208.10000000000	0.99616838621947	-53.655142671691
208.20000000000	0.99728583238861	-55.368865778761
208.30000000000	0.99827092967020	-57.165607322061
208.40000000000	0.99907701959612	-59.054742615731
208.50000000000	0.99964784315636	-61.047093336736
208.60000000000	0.99991622795435	-63.155255161728
208.70000000000	0.99980306540823	-65.394048025157
208.80000000000	0.99921708138704	-67.781163012536
208.90000000000	0.99805638027826	-70.338141702340
209.00000000000	0.99621367656555	-73.091950281910
209.10000000000	0.99358903380966	-76.077685136730
209.20000000000	0.99011804101688	-79.343584566708
209.30000000000	0.98583288265536	-82.961138765832
209.40000000000	0.98099789736972	-87.047672577682
209.50000000000	0.97642900139108	-91.823818006322
209.60000000000	0.97431478770922	-97.788918386420
209.70000000000	0.98040031954620	-106.42996353862
209.80000000000	1.0000000000000	-124.95080615125
209.90000000000	0.25012261863582	151.59016879209
210.00000000000	0.52852673271222	-83.806606652571
210.10000000000	0.60962600348732	-98.306386929768
210.20000000000	0.60245628296928	-107.05057799428
210.30000000000	0.56762070182561	-114.16116544066
210.40000000000	0.51892183131338	-120.60751431781
210.50000000000	0.46179517482077	-126.69664379308
210.60000000000	0.39940973099318	-132.52933873631
210.70000000000	0.33412922871430	-138.12874858275
210.80000000000	0.26789951651976	-143.48799625081
210.90000000000	0.20232900672362	-148.59094958206
211.00000000000	0.13868988966891	-153.42099164568
211.10000000000	0.077918439353169	-157.95892542015
211.20000000000	0.020637022036626	-162.07550049266
211.30000000000	0.032804095026286	13.530133004120
211.40000000000	0.082271151689851	9.8649337086186
211.50000000000	0.12779399672839	6.3808887669679
211.60000000000	0.16951451275438	3.1176854492498
211.70000000000	0.20764578713155	0.065761041011852
211.80000000000	0.24244031112142	-2.7899797554152
211.90000000000	0.27416696261936	-5.4655231495798
212.00000000000	0.30309525711171	-7.9764900349048
212.10000000000	0.32948522163016	-10.337642159750
212.20000000000	0.35358139415544	-12.562671391678
212.30000000000	0.37560971742497	-14.664127591124
212.40000000000	0.39577637966817	-16.653422953296
212.50000000000	0.41426790671218	-18.540879511260
212.60000000000	0.43125201346797	-20.335799896500
212.70000000000	0.44687887782326	-22.046548971307
212.80000000000	0.46128261323111	-23.680638606719
212.90000000000	0.47458279648873	-25.244810894500
213.00000000000	0.48688596255175	-26.745117056838
213.10000000000	0.49828701554511	-28.186990606187
213.20000000000	0.50887052970282	-29.575314136021
213.30000000000	0.51871192972088	-30.914479642313
213.40000000000	0.52787854976650	-32.208442588062
213.50000000000	0.53643057614534	-33.460770099271
213.60000000000	0.54442188176274	-34.674683768303
213.70000000000	0.55190076196671	-35.853097571601
213.80000000000	0.55891058176138	-36.998651405274
213.90000000000	0.56549034415063	-38.113740718096
214.00000000000	0.57167518878752	-39.200542686727
214.10000000000	0.57749682934299	-40.261039338226
214.20000000000	0.58298393717802	-41.297037984136
214.30000000000	0.58816247807470	-42.310189290737
214.40000000000	0.59305600799220	-43.302003272837
214.50000000000	0.59768593308482	-44.273863464299
214.60000000000	0.60207173855869	-45.227039487662
214.70000000000	0.60623119035526	-46.162698217648
214.80000000000	0.61018051312857	-47.081913708991
214.90000000000	0.61393454752733	-47.985676037484
215.00000000000	0.61750688939425	-48.874899184377
215.10000000000	0.62091001314890	-49.750428077742
215.20000000000	0.62415538132040	-50.613044890120
215.30000000000	0.62725354193633	-51.463474679229
215.40000000000	0.63021421525006	-52.302390447661
215.50000000000	0.63304637109456	-53.130417688042
215.60000000000	0.63575829798350	-53.948138471892
215.70000000000	0.63835766493578	-54.756095133284
215.80000000000	0.64085157687460	-55.554793592174
215.90000000000	0.64324662434428	-56.344706356863
216.00000000000	0.64554892819454	-57.126275240310
216.10000000000	0.64776417980083	-57.899913820939
216.20000000000	0.64989767731944	-58.666009674949
216.30000000000	0.65195435841500	-59.424926404010
216.40000000000	0.65393882984500	-60.177005479505
216.50000000000	0.65585539424024	-60.922567922026
216.60000000000	0.65770807437972	-61.661915832763
216.70000000000	0.65950063522352	-62.395333791549
216.80000000000	0.66123660393699	-63.123090134709
216.90000000000	0.66291928811239	-63.845438124413
217.00000000000	0.66455179237116	-64.562617019982
217.10000000000	0.66613703350906	-65.274853060485
217.20000000000	0.66767775432887	-65.982360366952
217.30000000000	0.66917653628904	-66.685341771697
217.40000000000	0.67063581108303	-67.383989581434
217.50000000000	0.67205787125170	-68.078486280216
217.60000000000	0.67344487992011	-68.769005177592
217.70000000000	0.67479887974078	-69.455711006859
217.80000000000	0.67612180111655	-70.138760477780
217.90000000000	0.67741546976912	-70.818302787739
218.00000000000	0.67868161371216	-71.494480094889
218.10000000000	0.67992186968239	-72.167427956538
218.20000000000	0.68113778907640	-72.837275735673
218.30000000000	0.68233084343639	-73.504146978304
218.40000000000	0.68350242952392	-74.168159763989
218.50000000000	0.68465387401679	-74.829427031765
218.60000000000	0.68578643786090	-75.488056883423
218.70000000000	0.68690132030599	-76.144152865972
218.80000000000	0.68799966265149	-76.797814234908
218.90000000000	0.68908255172600	-77.449136199792
219.00000000000	0.69015102312225	-78.098210153515
219.10000000000	0.69120606420681	-78.745123886480
219.20000000000	0.69224861692282	-79.389961786865
219.30000000000	0.69327958040160	-80.032805027987
219.40000000000	0.69429981339821	-80.673731743744
219.50000000000	0.69531013656449	-81.312817193005
219.60000000000	0.69631133457185	-81.950133913752
219.70000000000	0.69730415809525	-82.585751867711
219.80000000000	0.69828932566858	-83.219738576158
219.90000000000	0.69926752542114	-83.852159247522
220.00000000000	0.70023941670370	-84.483076897361
220.10000000000	0.70120563161232	-85.112552461233
220.20000000000	0.70216677641712	-85.740644900968
220.30000000000	0.70312343290286	-86.367411304778
220.40000000000	0.70407615962743	-86.992906981623
220.50000000000	0.70502549310409	-87.617185550228
220.60000000000	0.70597194891259	-88.240299023089
220.70000000000	0.70691602274410	-88.862297885825
220.80000000000	0.70785819138448	-89.483231172149
220.90000000000	0.70879891363985	-90.103146534764
221.00000000000	0.70973863120855	-90.722090312445
221.10000000000	0.71067776950273	-91.340107593531
221.20000000000	0.71161673842311	-91.957242276084
221.30000000000	0.71255593308976	-92.573537124896
221.40000000000	0.71349573453175	-93.189033825554
221.50000000000	0.71443651033836	-93.803773035755
221.60000000000	0.71537861527418	-94.417794434010
221.70000000000	0.71632239186032	-95.031136765931
221.80000000000	0.71726817092390	-95.643837888222
221.90000000000	0.71821627211775	-96.255934810521
222.00000000000	0.71916700441201	-96.867463735224
222.10000000000	0.72012066655948	-97.478460095405
222.20000000000	0.72107754753609	-98.088958590950
222.30000000000	0.72203792695817	-98.698993223005
222.40000000000	0.72300207547764	-99.308597326835
222.50000000000	0.72397025515657	-99.917803603194
222.60000000000	0.72494271982220	-100.52664414828
222.70000000000	0.72591971540355	-101.13515048238
222.80000000000	0.72690148025066	-101.74335357724
222.90000000000	0.72788824543734	-102.35128388224
223.00000000000	0.72888023504853	-102.95897134954
223.10000000000	0.72987766645285	-103.56644545806
223.20000000000	0.73088075056134	-104.17373523655
223.30000000000	0.73188969207305	-104.78086928569
223.40000000000	0.73290468970809	-105.38787579933
223.50000000000	0.73392593642901	-105.99478258485
223.60000000000	0.73495361965084	-106.60161708278
223.70000000000	0.73598792144056	-107.20840638565
223.80000000000	0.73702901870650	-107.81517725619
223.90000000000	0.73807708337811	-108.42195614474
224.00000000000	0.73913228257657	-109.02876920619
224.10000000000	0.74019477877679	-109.63564231625
224.20000000000	0.74126472996109	-110.24260108714
224.30000000000	0.74234228976503	-110.84967088279
224.40000000000	0.74342760761575	-111.45687683357
224.50000000000	0.74452082886306	-112.06424385052
224.60000000000	0.74562209490379	-112.67179663911
224.70000000000	0.74673154329957	-113.27955971267
224.80000000000	0.74784930788833	-113.88755740534
224.90000000000	0.74897551888987	-114.49581388473
225.00000000000	0.75011030300566	-115.10435316418
225.10000000000	0.75125378351321	-115.71319911475
225.20000000000	0.75240608035513	-116.32237547686
225.30000000000	0.75356731022315	-116.93190587170
225.40000000000	0.75473758663735	-117.54181381230
225.50000000000	0.75591702002061	-118.15212271449
225.60000000000	0.75710571776868	-118.76285590748
225.70000000000	0.75830378431589	-119.37403664434
225.80000000000	0.75951132119668	-119.98568811223
225.90000000000	0.76072842710313	-120.59783344252
226.00000000000	0.76195519793862	-121.21049572067
226.10000000000	0.76319172686768	-121.82369799600
226.20000000000	0.76443810436229	-122.43746329136
226.30000000000	0.76569441824456	-123.05181461265
226.40000000000	0.76696075372614	-123.66677495822
226.50000000000	0.76823719344412	-124.28236732825
226.60000000000	0.76952381749391	-124.89861473398
226.70000000000	0.77082070345884	-125.51554020693
226.80000000000	0.77212792643678	-126.13316680807
226.90000000000	0.77344555906373	-126.75151763692
227.00000000000	0.77477367153457	-127.37061584070
227.10000000000	0.77611233162086	-127.99048462338
227.20000000000	0.77746160468595	-128.61114725482
227.30000000000	0.77882155369729	-129.23262707989
227.40000000000	0.78019223923610	-129.85494752764
227.50000000000	0.78157371950434	-130.47813212050
227.60000000000	0.78296605032913	-131.10220448357
227.70000000000	0.78436928516460	-131.72718835395
227.80000000000	0.78578347509115	-132.35310759016
227.90000000000	0.78720866881225	-132.97998618175
228.00000000000	0.78864491264876	-133.60784825888
228.10000000000	0.79009225053073	-134.23671810218
228.20000000000	0.79155072398679	-134.86662015264
228.30000000000	0.79302037213104	-135.49757902179
228.40000000000	0.79450123164760	-136.12961950191
228.50000000000	0.79599333677257	-136.76276657661
228.60000000000	0.79749671927370	-137.39704543148
228.70000000000	0.79901140842748	-138.03248146505
228.80000000000	0.80053743099384	-138.66910030002
228.90000000000	0.80207481118835	-139.30692779471
229.00000000000	0.80362357065187	-139.94599005484
229.10000000000	0.80518372841778	-140.58631344563
229.20000000000	0.80675530087648	-141.22792460421
229.30000000000	0.80833830173743	-141.87085045243
229.40000000000	0.80993274198846	-142.51511821002
229.50000000000	0.81153862985243	-143.16075540822
229.60000000000	0.81315597074106	-143.80778990377
229.70000000000	0.81478476720602	-144.45624989348
229.80000000000	0.81642501888709	-145.10616392914
229.90000000000	0.81807672245731	-145.75756093316
230.00000000000	0.81973987156516	-146.41047021461
230.10000000000	0.82141445677349	-147.06492148594
230.20000000000	0.82310046549524	-147.72094488030
230.30000000000	0.82479788192575	-148.37857096960
230.40000000000	0.82650668697159	-149.03783078323
230.50000000000	0.82822685817568	-149.69875582751
230.60000000000	0.82995836963872	-150.36137810608
230.70000000000	0.83170119193646	-151.02573014100
230.80000000000	0.83345529203302	-151.69184499486
230.90000000000	0.83522063318968	-152.35975629382
231.00000000000	0.83699717486922	-153.02949825169
231.10000000000	0.83878487263532	-153.70110569505
231.20000000000	0.84058367804702	-154.37461408960
231.30000000000	0.84239353854767	-155.05005956770
231.40000000000	0.84421439734835	-155.72747895719
231.50000000000	0.84604619330514	-156.40690981165
231.60000000000	0.84788886079015	-157.08839044203
231.70000000000	0.84974232955564	-157.77195994997
231.80000000000	0.85160652459099	-158.45765826265
231.90000000000	0.85348136597195	-159.14552616949
232.00000000000	0.85536676870167	-159.83560536068
232.10000000000	0.85726264254292	-160.52793846770
232.20000000000	0.85916889184085	-161.22256910596
232.30000000000	0.86108541533575	-161.91954191969
232.40000000000	0.86301210596481	-162.61890262928
232.50000000000	0.86494885065230	-163.32069808103
232.60000000000	0.86689553008717	-164.02497629979
232.70000000000	0.86885201848707	-164.73178654439
232.80000000000	0.87081818334775	-165.44117936618
232.90000000000	0.87279388517665	-166.15320667085
233.00000000000	0.87477897720945	-166.86792178382
233.10000000000	0.87677330510803	-167.58537951929
233.20000000000	0.87877670663838	-168.30563625339
233.30000000000	0.88078901132679	-169.02875000150
233.40000000000	0.88281004009228	-169.75478050027
233.50000000000	0.88483960485342	-170.48378929439
233.60000000000	0.88687750810706	-171.21583982870
233.70000000000	0.88892354247661	-171.95099754585
233.80000000000	0.89097749022704	-172.68932998996
233.90000000000	0.89303912274356	-173.43090691671
234.00000000000	0.89510819997073	-174.17580041032
234.10000000000	0.89718446980804	-174.92408500792
234.20000000000	0.89926766745823	-175.67583783188
234.30000000000	0.90135751472350	-176.43113873060
234.40000000000	0.90345371924472	-177.19007042851
234.50000000000	0.90555597367824	-177.95271868590
234.60000000000	0.90766395480385	-178.71917246937
234.70000000000	0.90977732255739	-179.48952413365
234.80000000000	0.91189571898023	179.73613038430
234.90000000000	0.91401876707735	178.95769135781
235.00000000000	0.91614606957457	178.17505504894
235.10000000000	0.91827720756465	177.38811347124
235.20000000000	0.92041173903066	176.59675413605
235.30000000000	0.92254919723364	175.80085978059
235.40000000000	0.92468908895028	175.00030807668
235.50000000000	0.92683089254444	174.19497131823
235.60000000000	0.92897405585465	173.38471608593
235.70000000000	0.93111799387743	172.56940288703
235.80000000000	0.93326208622385	171.74888576827
235.90000000000	0.93540567432427	170.92301189946
236.00000000000	0.93754805835268	170.09162112535
236.10000000000	0.93968849383903	169.25454548282
236.20000000000	0.94182618793358	168.41160868041
236.30000000000	0.94396029528296	167.56262553685
236.40000000000	0.94608991347252	166.70740137472
236.50000000000	0.94821407798357	165.84573136527
236.60000000000	0.95033175660754	164.97739981984
236.70000000000	0.95244184325139	164.10217942279
236.80000000000	0.95454315105997	163.21983040059
236.90000000000	0.95663440477080	162.33009962073
237.00000000000	0.95871423220576	161.43271961393
237.10000000000	0.96078115479046	160.52740751185
237.20000000000	0.96283357697736	159.61386389235
237.30000000000	0.96486977443125	158.69177152267
237.40000000000	0.96688788081535	157.76079399055
237.50000000000	0.96888587299357	156.82057421174
237.60000000000	0.97086155443745	155.87073280123
237.70000000000	0.97281253659525	154.91086629404
237.80000000000	0.97473621794504	153.94054519978
237.90000000000	0.97662976041174	152.95931187340
238.00000000000	0.97849006277971	151.96667818251
238.10000000000	0.98031373067610	150.96212294926
238.20000000000	0.98209704263478	149.94508914236
238.30000000000	0.98383591167368	148.91498079182
238.40000000000	0.98552584172940	147.87115959578
238.50000000000	0.98716187818820	146.81294118525
238.60000000000	0.98873855163039	145.73959100844
238.70000000000	0.99024981376193	144.65031979206
238.80000000000	0.99168896433941	143.54427853175
238.90000000000	0.99304856769799	142.42055295849
239.00000000000	0.99432035726154	141.27815742168
239.10000000000	0.99549512614391	140.11602812295
239.20000000000	0.99656260163387	138.93301562762
239.30000000000	0.99751130098555	137.72787657316
239.40000000000	0.99832836550301	136.49926448554
239.50000000000	0.99899936940171	135.24571960651
