#Parameters = {P=600; R=140; deta_h=25; eps_Al2O3=1; eps_substrate=1; h=750; phi=0; theta=0}
#"Frequency / THz"	"SZmin(1),Zmax(1) [Mag]"	"SZmin(1),Zmax(1) [Pha in deg.]"
#---------------------------------------------------------------------------
200.00000000000	0.99947290900459	-99.330731977046
200.10000000000	0.99950524293468	-99.838605652240
200.20000000000	0.99953665623964	-100.34689583929
200.30000000000	0.99956714410881	-100.85560329540
200.40000000000	0.99959670164738	-101.36472878606
200.50000000000	0.99962532387704	-101.87427308497
200.60000000000	0.99965300573671	-102.38423697388
200.70000000000	0.99967974208327	-102.89462124260
200.80000000000	0.99970552769230	-103.40542668884
200.90000000000	0.99973035725889	-103.91665411811
201.00000000000	0.99975422539848	-104.42830434370
201.10000000000	0.99977712664770	-104.94037818651
201.20000000000	0.99979905546529	-105.45287647500
201.30000000000	0.99982000623298	-105.96580004505
201.40000000000	0.99983997325652	-106.47914973994
201.50000000000	0.99985895076660	-106.99292641017
201.60000000000	0.99987693291993	-107.50713091342
201.70000000000	0.99989391380028	-108.02176411444
201.80000000000	0.99990988741958	-108.53682688493
201.90000000000	0.99992484771903	-109.05232010346
202.00000000000	0.99993878857029	-109.56824465537
202.10000000000	0.99995170377666	-110.08460143266
202.20000000000	0.99996358707431	-110.60139133392
202.30000000000	0.99997443213358	-111.11861526417
202.40000000000	0.99998423256023	-111.63627413484
202.50000000000	0.99999298189681	-112.15436886357
202.60000000000	1.0000000000000	-112.67290037421
202.70000000000	1.0000000000000	-113.19186959663
202.80000000000	1.0000000000000	-113.71127746669
202.90000000000	1.0000000000000	-114.23112492607
203.00000000000	1.0000000000000	-114.75141292222
203.10000000000	1.0000000000000	-115.27214240823
203.20000000000	1.0000000000000	-115.79331434273
203.30000000000	1.0000000000000	-116.31492968978
203.40000000000	1.0000000000000	-116.83698941878
203.50000000000	1.0000000000000	-117.35949450436
203.60000000000	1.0000000000000	-117.88244592628
203.70000000000	1.0000000000000	-118.40584466929
203.80000000000	1.0000000000000	-118.92969172308
203.90000000000	1.0000000000000	-119.45398808215
204.00000000000	0.99999352355192	-119.97873474568
204.10000000000	0.99998453138396	-120.50393271747
204.20000000000	0.99997437014586	-121.02958300581
204.30000000000	0.99996303251181	-121.55568662338
204.40000000000	0.99995051112507	-122.08224458713
204.50000000000	0.99993679860000	-122.60925791821
204.60000000000	0.99992188752419	-123.13672764184
204.70000000000	0.99990577046059	-123.66465478721
204.80000000000	0.99988843994969	-124.19304038738
204.90000000000	0.99986988851176	-124.72188547916
205.00000000000	0.99985010864908	-125.25119110304
205.10000000000	0.99982909284823	-125.78095830307
205.20000000000	0.99980683358243	-126.31118812674
205.30000000000	0.99978332331393	-126.84188162490
205.40000000000	0.99975855449636	-127.37303985167
205.50000000000	0.99973251957725	-127.90466386428
205.60000000000	0.99970521100043	-128.43675472306
205.70000000000	0.99967662120860	-128.96931349125
205.80000000000	0.99964674264588	-129.50234123496
205.90000000000	0.99961556776039	-130.03583902305
206.00000000000	0.99958308900688	-130.56980792704
206.10000000000	0.99954929884942	-131.10424902098
206.20000000000	0.99951418976406	-131.63916338141
206.30000000000	0.99947775424164	-132.17455208723
206.40000000000	0.99943998479051	-132.71041621959
206.50000000000	0.99940087393936	-133.24675686182
206.60000000000	0.99936041424009	-133.78357509935
206.70000000000	0.99931859827069	-134.32087201957
206.80000000000	0.99927541863816	-134.85864871180
206.90000000000	0.99923086798149	-135.39690626714
207.00000000000	0.99918493897464	-135.93564577842
207.10000000000	0.99913762432958	-136.47486834009
207.20000000000	0.99908891679936	-137.01457504815
207.30000000000	0.99903880918124	-137.55476700006
207.40000000000	0.99898729431977	-138.09544529465
207.50000000000	0.99893436511005	-138.63661103203
207.60000000000	0.99888001450088	-139.17826531352
207.70000000000	0.99882423549802	-139.72040924157
207.80000000000	0.99876702116749	-140.26304391968
207.90000000000	0.99870836463886	-140.80617045231
208.00000000000	0.99864825910863	-141.34978994481
208.10000000000	0.99858669784357	-141.89390350336
208.20000000000	0.99852367418419	-142.43851223487
208.30000000000	0.99845918154813	-142.98361724694
208.40000000000	0.99839321343369	-143.52921964775
208.50000000000	0.99832576342332	-144.07532054603
208.60000000000	0.99825682518718	-144.62192105099
208.70000000000	0.99818639248670	-145.16902227221
208.80000000000	0.99811445917822	-145.71662531963
208.90000000000	0.99804101921657	-146.26473130348
209.00000000000	0.99796606665881	-146.81334133419
209.10000000000	0.99788959566790	-147.36245652236
209.20000000000	0.99781160051641	-147.91207797871
209.30000000000	0.99773207559033	-148.46220681401
209.40000000000	0.99765101539279	-149.01284413902
209.50000000000	0.99756841454793	-149.56399106447
209.60000000000	0.99748426780473	-150.11564870102
209.70000000000	0.99739857004087	-150.66781815915
209.80000000000	0.99731131626663	-151.22050054921
209.90000000000	0.99722250162882	-151.77369698131
210.00000000000	0.99713212141473	-152.32740856532
210.10000000000	0.99704017105608	-152.88163641081
210.20000000000	0.99694664613305	-153.43638162704
210.30000000000	0.99685154237830	-153.99164532295
210.40000000000	0.99675485568098	-154.54742860706
210.50000000000	0.99665658209085	-155.10373258752
210.60000000000	0.99655671782231	-155.66055837205
210.70000000000	0.99645525925856	-156.21790706795
210.80000000000	0.99635220295572	-156.77577978206
210.90000000000	0.99624754564696	-157.33417762074
211.00000000000	0.99614128424670	-157.89310168989
211.10000000000	0.99603341585478	-158.45255309493
211.20000000000	0.99592393776066	-159.01253294078
211.30000000000	0.99581284744768	-159.57304233188
211.40000000000	0.99570014259726	-160.13408237221
211.50000000000	0.99558582109318	-160.69565416523
211.60000000000	0.99546988102584	-161.25775881396
211.70000000000	0.99535232069656	-161.82039742095
211.80000000000	0.99523313862185	-162.38357108833
211.90000000000	0.99511233353775	-162.94728091777
212.00000000000	0.99498990440414	-163.51152801058
212.10000000000	0.99486585040905	-164.07631346766
212.20000000000	0.99474017097306	-164.64163838960
212.30000000000	0.99461286575359	-165.20750387666
212.40000000000	0.99448393464928	-165.77391102883
212.50000000000	0.99435337780439	-166.34086094586
212.60000000000	0.99422119561312	-166.90835472732
212.70000000000	0.99408738872401	-167.47639347263
212.80000000000	0.99395195804434	-168.04497828114
212.90000000000	0.99381490474450	-168.61411025215
213.00000000000	0.99367623026236	-169.18379048499
213.10000000000	0.99353593630770	-169.75402007909
213.20000000000	0.99339402486657	-170.32480013402
213.30000000000	0.99325049820568	-170.89613174961
213.40000000000	0.99310535887681	-171.46801602598
213.50000000000	0.99295860972119	-172.04045406365
213.60000000000	0.99281025387385	-172.61344696361
213.70000000000	0.99266029476804	-173.18699582741
213.80000000000	0.99250873613959	-173.76110175727
213.90000000000	0.99235558203127	-174.33576585617
214.00000000000	0.99220083679712	-174.91098922794
214.10000000000	0.99204450510687	-175.48677297738
214.20000000000	0.99188659195020	-176.06311821038
214.30000000000	0.99172710264112	-176.64002603402
214.40000000000	0.99156604282227	-177.21749755671
214.50000000000	0.99140341846923	-177.79553388831
214.60000000000	0.99123923589477	-178.37413614024
214.70000000000	0.99107350175318	-178.95330542565
214.80000000000	0.99090622304448	-179.53304285957
214.90000000000	0.99073740711870	179.88665044101
215.00000000000	0.99056706168006	179.30577335691
215.10000000000	0.99039519479117	178.72432476664
215.20000000000	0.99022181487725	178.14230354624
215.30000000000	0.99004693073024	177.55970856909
215.40000000000	0.98987055151296	176.97653870578
215.50000000000	0.98969268676320	176.39279282387
215.60000000000	0.98951334639782	175.80846978775
215.70000000000	0.98933254071678	175.22356845845
215.80000000000	0.98915028040718	174.63808769342
215.90000000000	0.98896657654726	174.05202634633
216.00000000000	0.98878144061036	173.46538326691
216.10000000000	0.98859488446885	172.87815730067
216.20000000000	0.98840692039805	172.29034728872
216.30000000000	0.98821756108006	171.70195206755
216.40000000000	0.98802681960764	171.11297046877
216.50000000000	0.98783470948795	170.52340131890
216.60000000000	0.98764124464634	169.93324343912
216.70000000000	0.98744643943009	169.34249564501
216.80000000000	0.98725030861203	168.75115674631
216.90000000000	0.98705286739421	168.15922554665
217.00000000000	0.98685413141150	167.56670084329
217.10000000000	0.98665411673512	166.97358142681
217.20000000000	0.98645283987616	166.37986608088
217.30000000000	0.98625031778902	165.78555358195
217.40000000000	0.98604656787485	165.19064269894
217.50000000000	0.98584160798487	164.59513219295
217.60000000000	0.98563545642374	163.99902081696
217.70000000000	0.98542813195277	163.40230731551
217.80000000000	0.98521965379314	162.80499042437
217.90000000000	0.98501004162909	162.20706887021
218.00000000000	0.98479931561098	161.60854137026
218.10000000000	0.98458749635837	161.00940663200
218.20000000000	0.98437460496300	160.40966335276
218.30000000000	0.98416066299168	159.80931021938
218.40000000000	0.98394569248925	159.20834590785
218.50000000000	0.98372971598132	158.60676908293
218.60000000000	0.98351275647704	158.00457839777
218.70000000000	0.98329483747182	157.40177249352
218.80000000000	0.98307598294991	156.79834999893
218.90000000000	0.98285621738700	156.19430952992
219.00000000000	0.98263556575269	155.58964968922
219.10000000000	0.98241405351295	154.98436906589
219.20000000000	0.98219170663244	154.37846623495
219.30000000000	0.98196855157686	153.77193975688
219.40000000000	0.98174461531511	153.16478817719
219.50000000000	0.98151992532149	152.55701002598
219.60000000000	0.98129450957775	151.94860381748
219.70000000000	0.98106839657515	151.33956804954
219.80000000000	0.98084161531631	150.72990120318
219.90000000000	0.98061419531716	150.11960174206
220.00000000000	0.98038616660865	149.50866811204
220.10000000000	0.98015755973850	148.89709874058
220.20000000000	0.97992840577281	148.28489203631
220.30000000000	0.97969873629763	147.67204638843
220.40000000000	0.97946858342041	147.05856016620
220.50000000000	0.97923797977138	146.44443171840
220.60000000000	0.97900695850490	145.82965937272
220.70000000000	0.97877555330066	145.21424143524
220.80000000000	0.97854379836479	144.59817618983
220.90000000000	0.97831172843098	143.98146189753
221.00000000000	0.97807937876142	143.36409679600
221.10000000000	0.97784678514767	142.74607909886
221.20000000000	0.97761398391151	142.12740699505
221.30000000000	0.97738101190560	141.50807864825
221.40000000000	0.97714790651411	140.88809219620
221.50000000000	0.97691470565329	140.26744575001
221.60000000000	0.97668144777189	139.64613739353
221.70000000000	0.97644817185150	139.02416518263
221.80000000000	0.97621491740681	138.40152714453
221.90000000000	0.97598172448580	137.77822127707
222.00000000000	0.97574863366982	137.15424554797
222.10000000000	0.97551568607350	136.52959789414
222.20000000000	0.97528292334472	135.90427622087
222.30000000000	0.97505038766435	135.27827840109
222.40000000000	0.97481812174592	134.65160227462
222.50000000000	0.97458616883527	134.02424564731
222.60000000000	0.97435457270999	133.39620629029
222.70000000000	0.97412337767884	132.76748193910
222.80000000000	0.97389262858103	132.13807029288
222.90000000000	0.97366237078543	131.50796901352
223.00000000000	0.97343265018963	130.87717572474
223.10000000000	0.97320351321895	130.24568801125
223.20000000000	0.97297500682532	129.61350341784
223.30000000000	0.97274717848603	128.98061944841
223.40000000000	0.97252007620246	128.34703356510
223.50000000000	0.97229374849858	127.71274318727
223.60000000000	0.97206824441946	127.07774569057
223.70000000000	0.97184361352958	126.44203840589
223.80000000000	0.97161990591111	125.80561861841
223.90000000000	0.97139717216200	125.16848356651
224.00000000000	0.97117546339403	124.53063044074
224.10000000000	0.97095483123070	123.89205638273
224.20000000000	0.97073532780505	123.25275848411
224.30000000000	0.97051700575729	122.61273378538
224.40000000000	0.97029991823240	121.97197927475
224.50000000000	0.97008411887758	121.33049188700
224.60000000000	0.96986966183955	120.68826850227
224.70000000000	0.96965660176178	120.04530594487
224.80000000000	0.96944499378159	119.40160098201
224.90000000000	0.96923489352709	118.75715032255
225.00000000000	0.96902635711402	118.11195061570
225.10000000000	0.96881944114250	117.46599844972
225.20000000000	0.96861420269361	116.81929035056
225.30000000000	0.96841069932584	116.17182278046
225.40000000000	0.96820898907143	115.52359213659
225.50000000000	0.96800913043258	114.87459474956
225.60000000000	0.96781118237753	114.22482688202
225.70000000000	0.96761520433647	113.57428472707
225.80000000000	0.96742125619735	112.92296440682
225.90000000000	0.96722939830154	112.27086197074
226.00000000000	0.96703969143934	111.61797339412
226.10000000000	0.96685219684536	110.96429457637
226.20000000000	0.96666697619374	110.30982133941
226.30000000000	0.96648409159325	109.65454942587
226.40000000000	0.96630360558215	108.99847449741
226.50000000000	0.96612558112306	108.34159213288
226.60000000000	0.96595008159748	107.68389782649
226.70000000000	0.96577717080029	107.02538698590
226.80000000000	0.96560691293405	106.36605493034
226.90000000000	0.96543937260306	105.70589688859
227.00000000000	0.96527461480739	105.04490799695
227.10000000000	0.96511270493659	104.38308329722
227.20000000000	0.96495370876330	103.72041773449
227.30000000000	0.96479769243667	103.05690615502
227.40000000000	0.96464472247557	102.39254330399
227.50000000000	0.96449486576163	101.72732382318
227.60000000000	0.96434818953204	101.06124224867
227.70000000000	0.96420476137222	100.39429300836
227.80000000000	0.96406464920818	99.726470419539
227.90000000000	0.96392792129876	99.057768686340
228.00000000000	0.96379464622757	98.388181897108
228.10000000000	0.96366489289477	97.717704021739
228.20000000000	0.96353873050855	97.046328908918
228.30000000000	0.96341622857641	96.374050283295
228.40000000000	0.96329745689618	95.700861742582
228.50000000000	0.96318248554674	95.026756754563
228.60000000000	0.96307138487854	94.351728654026
228.70000000000	0.96296422550375	93.675770639611
228.80000000000	0.96286107828624	92.998875770559
228.90000000000	0.96276201433116	92.321036963380
229.00000000000	0.96266710497420	91.642246988416
229.10000000000	0.96257642177066	90.962498466305
229.20000000000	0.96249003648401	90.281783864346
229.30000000000	0.96240802107423	89.600095492753
229.40000000000	0.96233044768572	88.917425500798
229.50000000000	0.96225738863487	88.233765872836
229.60000000000	0.96218891639720	87.549108424216
229.70000000000	0.96212510359413	86.863444797060
229.80000000000	0.96206602297929	86.176766455916
229.90000000000	0.96201174742438	85.489064683280
230.00000000000	0.96196234990461	84.800330574965
230.10000000000	0.96191790348360	84.110555035341
230.20000000000	0.96187848129779	83.419728772413
230.30000000000	0.96184415654031	82.727842292746
230.40000000000	0.96181500244432	82.034885896224
230.50000000000	0.96179109226572	81.340849670642
230.60000000000	0.96177249926527	80.645723486117
230.70000000000	0.96175929669010	79.949496989322
230.80000000000	0.96175155775445	79.252159597518
230.90000000000	0.96174935561981	78.553700492398
231.00000000000	0.96175276337426	77.854108613716
231.10000000000	0.96176185401103	77.153372652699
231.20000000000	0.96177670040623	76.451481045242
231.30000000000	0.96179737529575	75.748421964858
231.40000000000	0.96182395125122	75.044183315392
231.50000000000	0.96185650065501	74.338752723473
231.60000000000	0.96189509567424	73.632117530708
231.70000000000	0.96193980823372	72.924264785592
231.80000000000	0.96199070998772	72.215181235132
231.90000000000	0.96204787229066	71.504853316171
232.00000000000	0.96211136616644	70.793267146395
232.10000000000	0.96218126227649	70.080408515013
232.20000000000	0.96225763088647	69.366262873091
232.30000000000	0.96234054183142	68.650815323535
232.40000000000	0.96243006447943	67.934050610691
232.50000000000	0.96252626769357	67.215953109566
232.60000000000	0.96262921979214	66.496506814626
232.70000000000	0.96273898850709	65.775695328181
232.80000000000	0.96285564094042	65.053501848318
232.90000000000	0.96297924351854	64.329909156365
233.00000000000	0.96310986194446	63.604899603875
233.10000000000	0.96324756114758	62.878455099087
233.20000000000	0.96339240523109	62.150557092871
233.30000000000	0.96354445741669	61.421186564092
233.40000000000	0.96370377998654	60.690324004409
233.50000000000	0.96387043422226	59.957949402445
233.60000000000	0.96404448034079	59.224042227324
233.70000000000	0.96422597742688	58.488581411530
233.80000000000	0.96441498336209	57.751545333063
233.90000000000	0.96461155474991	57.012911796853
234.00000000000	0.96481574683695	56.272658015396
234.10000000000	0.96502761342981	55.530760588585
234.20000000000	0.96524720680740	54.787195482672
234.30000000000	0.96547457762836	54.041938008349
234.40000000000	0.96570977483333	53.294962797872
234.50000000000	0.96595284554173	52.546243781211
234.60000000000	0.96620383494255	51.795754161147
234.70000000000	0.96646278617895	51.043466387289
234.80000000000	0.96672974022605	50.289352128934
234.90000000000	0.96700473576163	49.533382246726
235.00000000000	0.96728780902909	48.775526763045
235.10000000000	0.96757899369223	48.015754831054
235.20000000000	0.96787832068133	47.254034702350
235.30000000000	0.96818581802972	46.490333693124
235.40000000000	0.96850151070043	45.724618148775
235.50000000000	0.96882542040204	44.956853406866
235.60000000000	0.96915756539296	44.187003758365
235.70000000000	0.96949796027349	43.415032407048
235.80000000000	0.96984661576451	42.640901426989
235.90000000000	0.97020353847205	41.864571718011
236.00000000000	0.97056873063661	41.086002959002
236.10000000000	0.97094218986611	40.305153558968
236.20000000000	0.97132390885127	39.521980605693
236.30000000000	0.97171387506212	38.736439811887
236.40000000000	0.97211207042420	37.948485458661
236.50000000000	0.97251847097291	37.158070336188
236.60000000000	0.97293304648441	36.365145681381
236.70000000000	0.97335576008118	35.569661112430
236.80000000000	0.97378656781039	34.771564559986
236.90000000000	0.97422541819284	33.970802194836
237.00000000000	0.97467225174030	33.167318351818
237.10000000000	0.97512700043873	32.361055449792
237.20000000000	0.97558958719460	31.551953907407
237.30000000000	0.97605992524147	30.739952054413
237.40000000000	0.97653791750357	29.924986038259
237.50000000000	0.97702345591300	29.106989725683
237.60000000000	0.97751642067664	28.285894598985
237.70000000000	0.97801667948874	27.461629646656
237.80000000000	0.97852408668473	26.634121248010
237.90000000000	0.97903848233131	25.803293051453
238.00000000000	0.97955969124748	24.969065845974
238.10000000000	0.98008752195082	24.131357425431
238.20000000000	0.98062176552246	23.290082445188
238.30000000000	0.98116219438405	22.445152270585
238.40000000000	0.98170856097899	21.596474816736
238.50000000000	0.98226059634962	20.743954379074
238.60000000000	0.98281800860147	19.887491454049
238.70000000000	0.98338048124442	19.026982549321
238.80000000000	0.98394767140010	18.162319982758
238.90000000000	0.98451920786337	17.293391669485
239.00000000000	0.98509468900506	16.420080896188
239.10000000000	0.98567368050140	15.542266081814
239.20000000000	0.98625571287449	14.659820523728
239.30000000000	0.98684027882638	13.772612128359
239.40000000000	0.98742683034790	12.880503125249
239.50000000000	0.98801477558099	11.983349763364
239.60000000000	0.98860347541178	11.081001988449
239.70000000000	0.98919223976879	10.173303100084
239.80000000000	0.98978032359828	9.2600893870417
239.90000000000	0.99036692248599	8.3411897394077
