#Parameters = {P=600; R=140; deta_h=25; eps_Al2O3=1; eps_substrate=1; h=750; phi=0; theta=0}
#"Frequency / THz"	"SZmin(1),Zmax(1) [Mag]"	"SZmin(1),Zmax(1) [Pha in deg.]"
#---------------------------------------------------------------------------
200.00000000000	0.99950416682601	-39.533119514193
200.10000000000	0.99844663908893	-41.757751650418
200.20000000000	0.99649626864162	-44.112638882832
200.30000000000	0.99343081725164	-46.610103690572
200.40000000000	0.98898320208225	-49.263217761860
200.50000000000	0.98283552238654	-52.085589298578
200.60000000000	0.97461416020821	-55.091013568501
200.70000000000	0.96388732378414	-58.292943452170
200.80000000000	0.95016701806899	-61.703735088053
200.90000000000	0.93291807343872	-65.333631229127
201.00000000000	0.91157733381979	-69.189468184906
201.10000000000	0.88558602711553	-73.273138420833
201.20000000000	0.85443718934040	-77.579914487778
201.30000000000	0.81773726329387	-82.096836762240
201.40000000000	0.77527647783993	-86.801467362839
201.50000000000	0.72709705447501	-91.661375685085
201.60000000000	0.67354365386417	-96.634695218243
201.70000000000	0.61527962753546	-101.67193720084
201.80000000000	0.55325787243546	-106.71897238365
201.90000000000	0.48864611683060	-111.72077407899
202.00000000000	0.42271950942728	-116.62527579356
202.10000000000	0.35674272514048	-121.38663485123
202.20000000000	0.29186524943610	-125.96731114661
202.30000000000	0.22904703936719	-130.33851858397
202.40000000000	0.16902119157262	-134.47834345961
202.50000000000	0.11229042388658	-138.36415382990
202.60000000000	0.059148278051181	-141.93164725127
202.70000000000	0.0097173236702381	-143.88402955405
202.80000000000	0.036032402647174	30.514325548032
202.90000000000	0.078195891266335	27.712990888306
203.00000000000	0.11695748593771	24.910482569945
203.10000000000	0.15253170872533	22.244311980659
203.20000000000	0.18515197104146	19.725790529058
203.30000000000	0.21505628932364	17.349344670371
203.40000000000	0.24247780489244	15.105509680357
203.50000000000	0.26763879879637	12.984009807824
203.60000000000	0.29074724472160	10.974758187547
203.70000000000	0.31199514154299	9.0682311964402
203.80000000000	0.33155804703816	7.2556063793187
203.90000000000	0.34959538740232	5.5287968403569
204.00000000000	0.36625123939870	3.8804364472117
204.10000000000	0.38165537510642	2.3038412308524
204.20000000000	0.39592442782305	0.79295997595842
204.30000000000	0.40916308687325	-0.65767896701662
204.40000000000	0.42146526356809	-2.0530207573374
204.50000000000	0.43291519424550	-3.3975348975459
204.60000000000	0.44358846224517	-4.6952627232934
204.70000000000	0.45355293112212	-5.9498610595113
204.80000000000	0.46286958805610	-7.1646419178216
204.90000000000	0.47159330047515	-8.3426083239090
205.00000000000	0.47977349123062	-9.4864864836470
205.10000000000	0.48745473882875	-10.598754557981
205.20000000000	0.49467730965388	-11.681668341479
205.30000000000	0.50147762908347	-12.737284141913
205.40000000000	0.50788869808611	-13.767479147617
205.50000000000	0.51394046143399	-14.773969551320
205.60000000000	0.51966013312962	-15.758326677578
205.70000000000	0.52507248409766	-16.721991338146
205.80000000000	0.53020009665380	-17.666286616998
205.90000000000	0.53506358975599	-18.592429265188
206.00000000000	0.53968181857425	-19.501539865699
206.10000000000	0.54407205149215	-20.394651910175
206.20000000000	0.54825012727136	-21.272719912832
206.30000000000	0.55223059477413	-22.136626672164
206.40000000000	0.55602683733858	-22.987189777831
206.50000000000	0.55965118364027	-23.825167448499
206.60000000000	0.56311500664321	-24.651263776181
206.70000000000	0.56642881204206	-25.466133443502
206.80000000000	0.56960231742312	-26.270385972488
206.90000000000	0.57264452321708	-27.064589556428
207.00000000000	0.57556377638510	-27.849274520290
207.10000000000	0.57836782766239	-28.624936449820
207.20000000000	0.58106388308363	-29.392039024760
207.30000000000	0.58365865042563	-30.151016587509
207.40000000000	0.58615838112677	-30.902276474933
207.50000000000	0.58856890817519	-31.646201137888
207.60000000000	0.59089568039997	-32.383150070215
207.70000000000	0.59314379354822	-33.113461566561
207.80000000000	0.59531801848643	-33.837454326174
207.90000000000	0.59742282682570	-34.555428917996
208.00000000000	0.59946241423604	-35.267669120655
208.10000000000	0.60144072168512	-35.974443149524
208.20000000000	0.60336145481039	-36.676004781695
208.30000000000	0.60522810161069	-37.372594388581
208.40000000000	0.60704394862256	-38.064439884833
208.50000000000	0.60881209572918	-38.751757601369
208.60000000000	0.61053546973351	-39.434753089507
208.70000000000	0.61221683681343	-40.113621862484
208.80000000000	0.61385881396441	-40.788550080023
208.90000000000	0.61546387952412	-41.459715181030
209.00000000000	0.61703438286369	-42.127286469023
209.10000000000	0.61857255332197	-42.791425654445
209.20000000000	0.62008050845110	-43.452287357599
209.30000000000	0.62156026163510	-44.110019575607
209.40000000000	0.62301372913730	-44.764764116474
209.50000000000	0.62444273662650	-45.416657003032
209.60000000000	0.62584902522758	-46.065828849319
209.70000000000	0.62723425713737	-46.712405211683
209.80000000000	0.62860002084314	-47.356506916726
209.90000000000	0.62994783597739	-47.998250367983
210.00000000000	0.63127915783957	-48.637747833109
210.10000000000	0.63259538161277	-49.275107713150
210.20000000000	0.63389784630042	-49.910434795378
210.30000000000	0.63518783840649	-50.543830491025
210.40000000000	0.63646659538009	-51.175393059142
210.50000000000	0.63773530884376	-51.805217817724
210.60000000000	0.63899512762316	-52.433397343152
210.70000000000	0.64024716059430	-53.060021658887
210.80000000000	0.64149247936322	-53.685178414339
210.90000000000	0.64273212079155	-54.308953054709
211.00000000000	0.64396708938076	-54.931428982585
211.10000000000	0.64519835952649	-55.552687711996
211.20000000000	0.64642687765367	-56.172809015587
211.30000000000	0.64765356424238	-56.791871065535
211.40000000000	0.64887931575347	-57.409950568791
211.50000000000	0.65010500646257	-58.027122897189
211.60000000000	0.65133149021035	-58.643462212944
211.70000000000	0.65255960207632	-59.259041590011
211.80000000000	0.65379015998332	-59.873933131789
211.90000000000	0.65502396623876	-60.488208085603
212.00000000000	0.65626180901918	-61.101936954377
212.10000000000	0.65750446380343	-61.715189605924
212.20000000000	0.65875269476016	-62.328035380237
212.30000000000	0.66000725609471	-62.940543195164
212.40000000000	0.66126889336029	-63.552781650844
212.50000000000	0.66253834473819	-64.164819133274
212.60000000000	0.66381634229146	-64.776723917372
212.70000000000	0.66510361319661	-65.388564269891
212.80000000000	0.66640088095735	-66.000408552554
212.90000000000	0.66770886660464	-66.612325325776
213.00000000000	0.66902828988710	-67.224383453336
213.10000000000	0.67035987045575	-67.836652208377
213.20000000000	0.67170432904689	-68.449201381128
213.30000000000	0.67306238866744	-69.062101388726
213.40000000000	0.67443477578617	-69.675423387575
213.50000000000	0.67582222153527	-70.289239388644
213.60000000000	0.67722546292597	-70.903622376166
213.70000000000	0.67864524408236	-71.518646430207
213.80000000000	0.68008231749773	-72.134386853592
213.90000000000	0.68153744531749	-72.750920303721
214.00000000000	0.68301140065327	-73.368324929827
214.10000000000	0.68450496893276	-73.986680516277
214.20000000000	0.68601894928996	-74.606068632539
214.30000000000	0.68755415600092	-75.226572790519
214.40000000000	0.68911141997019	-75.848278609978
214.50000000000	0.69069159027335	-76.471273992841
214.60000000000	0.69229553576155	-77.095649307246
214.70000000000	0.69392414673409	-77.721497582268
214.80000000000	0.69557833668542	-78.348914714311
214.90000000000	0.69725904413369	-78.977999686297
215.00000000000	0.69896723453781	-79.608854800817
215.10000000000	0.70070390231113	-80.241585928569
215.20000000000	0.70247007293973	-80.876302773514
215.30000000000	0.70426680521451	-81.513119156320
215.40000000000	0.70609519358626	-82.152153317799
215.50000000000	0.70795637065404	-82.793528244254
215.60000000000	0.70985150979765	-83.437372016809
215.70000000000	0.71178182796590	-84.083818187015
215.80000000000	0.71374858863305	-84.733006181281
215.90000000000	0.71575310493687	-85.385081736929
216.00000000000	0.71779674301251	-86.040197372988
216.10000000000	0.71988092553773	-86.698512899173
216.20000000000	0.72200713550560	-87.360195966877
216.30000000000	0.72417692024240	-88.025422666436
216.40000000000	0.72639189568942	-88.694378175417
216.50000000000	0.72865375096844	-89.367257463222
216.60000000000	0.73096425325224	-90.044266057912
216.70000000000	0.73332525296251	-90.725620881887
216.80000000000	0.73573868931891	-91.411551163820
216.90000000000	0.73820659626405	-92.102299435178
217.00000000000	0.74073110879070	-92.798122620684
217.10000000000	0.74331446969784	-93.499293233243
217.20000000000	0.74595903680357	-94.206100685226
217.30000000000	0.74866729064281	-94.918852729511
217.40000000000	0.75144184267781	-95.637877045468
217.50000000000	0.75428544404869	-96.363522987086
217.60000000000	0.75720099488965	-97.096163512782
217.70000000000	0.76019155423350	-97.836197319077
217.80000000000	0.76326035052287	-98.584051203474
217.90000000000	0.76641079273970	-99.340182685395
218.00000000000	0.76964648215553	-100.10508291821
218.10000000000	0.77297122469194	-100.87927993021
218.20000000000	0.77638904386287	-101.66334223786
218.30000000000	0.77990419424666	-102.45788288146
218.40000000000	0.78352117540369	-103.26356394045
218.50000000000	0.78724474611296	-104.08110159507
218.60000000000	0.79107993874498	-104.91127181098
218.70000000000	0.79503207351412	-105.75491673588
218.80000000000	0.79910677225669	-106.61295191159
218.90000000000	0.80330997125309	-107.48637442155
219.00000000000	0.80764793244552	-108.37627211406
219.10000000000	0.81212725218353	-109.28383406458
219.20000000000	0.81675486634253	-110.21036246836
219.30000000000	0.82153805028397	-111.15728618730
219.40000000000	0.82648441163177	-112.12617621360
219.50000000000	0.83160187319024	-113.11876335843
219.60000000000	0.83689864247436	-114.13695852800
219.70000000000	0.84238316319738	-115.18287601278
219.80000000000	0.84806404257387	-116.25886029066
219.90000000000	0.85394994633075	-117.36751693231
220.00000000000	0.86004945071432	-118.51174829888
220.10000000000	0.86637083732566	-119.69479483947
220.20000000000	0.87292181202585	-120.92028292942
220.30000000000	0.87970912304550	-122.19228033858
220.40000000000	0.88673804530780	-123.51536057899
220.50000000000	0.89401168716550	-124.89467754517
220.60000000000	0.90153006139455	-126.33605201205
220.70000000000	0.90928884327250	-127.84607166810
220.80000000000	0.91727771351906	-129.43220638699
220.90000000000	0.92547815115028	-131.10294030046
221.00000000000	0.93386049910949	-132.86792180090
221.10000000000	0.94238007226275	-134.73813166844
221.20000000000	0.95097201225587	-136.72606776589
221.30000000000	0.95954451848146	-138.84594168455
221.40000000000	0.96797000594170	-141.11387762572
221.50000000000	0.97607367660120	-143.54809561539
221.60000000000	0.98361897798388	-146.16904844121
221.70000000000	0.99028953236385	-148.99946269351
221.80000000000	0.99566747749439	-152.06420714933
221.90000000000	0.99920896845968	-155.38987544555
222.00000000000	1.0000000000000	-159.00392634298
222.10000000000	0.99783146315615	-162.93318232980
222.20000000000	0.99100031297989	-167.20146694206
222.30000000000	0.97852041645093	-171.82620347767
222.40000000000	0.95909078357506	-176.81396374987
222.50000000000	0.93144007031837	177.84469213497
222.60000000000	0.89451914945192	172.18019838703
222.70000000000	0.84774074608889	166.24730684801
222.80000000000	0.79120960906886	160.12498283614
222.90000000000	0.72585903552707	153.91158376908
223.00000000000	0.65341835868483	147.71544709854
223.10000000000	0.57619320300930	141.64285747434
223.20000000000	0.49671990624360	135.78656360655
223.30000000000	0.41740637495657	130.21775396554
223.40000000000	0.34026209246254	124.98286010866
223.50000000000	0.26676500969523	120.10474500720
223.60000000000	0.19785419240929	115.58668474146
223.70000000000	0.13400439656670	111.41725021292
223.80000000000	0.075335395433673	107.57376050014
223.90000000000	0.021722017331890	104.00353273380
224.00000000000	0.027112991304739	-79.153855508369
224.10000000000	0.071528672540201	-82.184781075077
224.20000000000	0.11191722372900	-84.970678041544
224.30000000000	0.14867238664060	-87.553302806804
224.40000000000	0.18217066142309	-89.956812349687
224.50000000000	0.21276121471188	-92.201522009945
224.60000000000	0.24076147446405	-94.305178300450
224.70000000000	0.26645623752173	-96.283362621045
224.80000000000	0.29009881756821	-98.149756330830
224.90000000000	0.31191327548577	-99.916367978832
225.00000000000	0.33209713171804	-101.59373867875
225.10000000000	0.35082419938149	-103.19112736915
225.20000000000	0.36824733196608	-104.71667598714
225.30000000000	0.38450097732022	-106.17755511040
225.40000000000	0.39970348961573	-107.58009128132
225.50000000000	0.41395918652298	-108.92987763907
225.60000000000	0.42736015887010	-110.23186965380
225.70000000000	0.43998785049580	-111.49046775899
225.80000000000	0.45191443062406	-112.70958857826
225.90000000000	0.46320398229688	-113.89272629360
226.00000000000	0.47391352970128	-115.04300553194
226.10000000000	0.48409392554230	-116.16322697676
226.20000000000	0.49379061750079	-117.25590675059
226.30000000000	0.50304431059449	-118.32331046795
226.40000000000	0.51189154011480	-119.36748272892
226.50000000000	0.52036516782958	-120.39027271016
226.60000000000	0.52849481236509	-121.39335641258
226.70000000000	0.53630722311496	-122.37825604150
226.80000000000	0.54382660566416	-123.34635692342
226.90000000000	0.55107490554401	-124.29892230366
227.00000000000	0.55807205613114	-125.23710631722
227.10000000000	0.56483619564678	-126.16196538246
227.20000000000	0.57138385748557	-127.07446823015
227.30000000000	0.57773013748436	-127.97550474950
227.40000000000	0.58388884121714	-128.86589380680
227.50000000000	0.58987261395733	-129.74639016960
227.60000000000	0.59569305557095	-130.61769065111
227.70000000000	0.60136082228393	-131.48043957295
227.80000000000	0.60688571699403	-132.33523363115
227.90000000000	0.61227676956651	-133.18262623858
228.00000000000	0.61754230835509	-134.02313140725
228.10000000000	0.62269002402133	-134.85722722512
228.20000000000	0.62772702658181	-135.68535897544
228.30000000000	0.63265989648942	-136.50794193977
228.40000000000	0.63749473044927	-137.32536392108
228.50000000000	0.64223718257972	-138.13798751848
228.60000000000	0.64689250145043	-138.94615218103
228.70000000000	0.65146556346277	-139.75017606518
228.80000000000	0.65596090297964	-140.55035771678
228.90000000000	0.66038273956186	-141.34697759665
229.00000000000	0.66473500262489	-142.14029946606
229.10000000000	0.66902135379177	-142.93057164668
229.20000000000	0.67324520718591	-143.71802816796
229.30000000000	0.67740974787834	-144.50288981328
229.40000000000	0.68151794867966	-145.28536507500
229.50000000000	0.68557258544504	-146.06565102739
229.60000000000	0.68957625104142	-146.84393412547
229.70000000000	0.69353136811001	-147.62039093690
229.80000000000	0.69744020074188	-148.39518881318
229.90000000000	0.70130486517214	-149.16848650598
230.00000000000	0.70512733958667	-149.94043473366
230.10000000000	0.70890947312534	-150.71117670245
230.20000000000	0.71265299415706	-151.48084858652
230.30000000000	0.71635951789400	-152.24957997056
230.40000000000	0.72003055340554	-153.01749425815
230.50000000000	0.72366751008644	-153.78470904901
230.60000000000	0.72727170362802	-154.55133648774
230.70000000000	0.73084436153680	-155.31748358650
230.80000000000	0.73438662824007	-156.08325252387
230.90000000000	0.73789956981476	-156.84874092190
231.00000000000	0.74138417837191	-157.61404210308
231.10000000000	0.74484137612641	-158.37924532895
231.20000000000	0.74827201917865	-159.14443602187
231.30000000000	0.75167690103250	-159.90969597120
231.40000000000	0.75505675587166	-160.67510352527
231.50000000000	0.75841226161444	-161.44073377013
231.60000000000	0.76174404276541	-162.20665869630
231.70000000000	0.76505267308049	-162.97294735427
231.80000000000	0.76833867806090	-163.73966599975
231.90000000000	0.77160253728977	-164.50687822941
232.00000000000	0.77484468662436	-165.27464510792
232.10000000000	0.77806552025537	-166.04302528681
232.20000000000	0.78126539264429	-166.81207511592
232.30000000000	0.78444462034849	-167.58184874797
232.40000000000	0.78760348374312	-168.35239823668
232.50000000000	0.79074222864826	-169.12377362914
232.60000000000	0.79386106786875	-169.89602305258
232.70000000000	0.79696018265401	-170.66919279632
232.80000000000	0.80003972408414	-171.44332738892
232.90000000000	0.80309981438845	-172.21846967119
233.00000000000	0.80614054820182	-172.99466086524
233.10000000000	0.80916199376413	-173.77194063988
233.20000000000	0.81216419406741	-174.55034717279
233.30000000000	0.81514716795509	-175.32991720954
233.40000000000	0.81811091117733	-176.11068611997
233.50000000000	0.82105539740631	-176.89268795185
233.60000000000	0.82398057921477	-177.67595548240
233.70000000000	0.82688638902106	-178.46052026761
233.80000000000	0.82977274000366	-179.24641268971
233.90000000000	0.83263952698789	179.96633799707
234.00000000000	0.83548662730724	179.17770362228
234.10000000000	0.83831390164179	178.38765705627
234.20000000000	0.84112119483574	177.59617216855
234.30000000000	0.84390833669600	176.80322378696
234.40000000000	0.84667514277375	176.00878765789
234.50000000000	0.84942141513055	175.21284040706
234.60000000000	0.85214694309046	174.41535950096
234.70000000000	0.85485150397963	173.61632320867
234.80000000000	0.85753486385458	172.81571056398
234.90000000000	0.86019677822021	172.01350132769
235.00000000000	0.86283699273866	171.20967594995
235.10000000000	0.86545524392980	170.40421553247
235.20000000000	0.86805125986422	169.59710179053
235.30000000000	0.87062476084931	168.78831701472
235.40000000000	0.87317546010904	167.97784403207
235.50000000000	0.87570306445802	167.16566616681
235.60000000000	0.87820727497001	166.35176720024
235.70000000000	0.88068778764139	165.53613132989
235.80000000000	0.88314429404968	164.71874312775
235.90000000000	0.88557648200728	163.89958749739
236.00000000000	0.88798403621037	163.07864962992
236.10000000000	0.89036663888319	162.25591495870
236.20000000000	0.89272397041716	161.43136911252
236.30000000000	0.89505571000508	160.60499786735
236.40000000000	0.89736153626976	159.77678709628
236.50000000000	0.89964112788699	158.94672271773
236.60000000000	0.90189416420225	158.11479064163
236.70000000000	0.90412032584070	157.28097671356
236.80000000000	0.90631929530991	156.44526665657
236.90000000000	0.90849075759456	155.60764601065
237.00000000000	0.91063440074248	154.76810006954
237.10000000000	0.91274991644110	153.92661381490
237.20000000000	0.91483700058355	153.08317184749
237.30000000000	0.91689535382328	152.23775831526
237.40000000000	0.91892468211628	151.39035683810
237.50000000000	0.92092469724962	150.54095042914
237.60000000000	0.92289511735519	149.68952141225
237.70000000000	0.92483566740725	148.83605133560
237.80000000000	0.92674607970241	147.98052088094
237.90000000000	0.92862609432041	147.12290976847
238.00000000000	0.93047545956428	146.26319665686
238.10000000000	0.93229393237790	145.40135903821
238.20000000000	0.93408127873916	144.53737312757
238.30000000000	0.93583727402678	143.67121374676
238.40000000000	0.93756170335863	142.80285420192
238.50000000000	0.93925436189899	141.93226615464
238.60000000000	0.94091505513262	141.05941948595
238.70000000000	0.94254359910259	140.18428215295
238.80000000000	0.94413982060929	139.30682003738
238.90000000000	0.94570355736706	138.42699678560
239.00000000000	0.94723465811534	137.54477363950
239.10000000000	0.94873298268048	136.66010925746
239.20000000000	0.95019840198403	135.77295952491
239.30000000000	0.95163079799319	134.88327735339
239.40000000000	0.95303006360833	133.99101246760
239.50000000000	0.95439610248251	133.09611117919
