#Parameters = {P=600; R=140; deta_h=25; eps_Al2O3=1; eps_substrate=1; h=750; phi=0; theta=0}
#"Frequency / THz"	"SZmin(1),Zmax(1) [Mag]"	"SZmin(1),Zmax(1) [Pha in deg.]"
#---------------------------------------------------------------------------
200.00000000000	0.99723007109658	-82.481565827786
200.10000000000	0.99740112378339	-82.946475638774
200.20000000000	0.99756797178647	-83.411644402844
200.30000000000	0.99773066322802	-83.877071600616
200.40000000000	0.99788924622538	-84.342756745281
200.50000000000	0.99804376888095	-84.808699382459
200.60000000000	0.99819427927217	-85.274899090064
200.70000000000	0.99834082544173	-85.741355478156
200.80000000000	0.99848345538765	-86.208068188787
200.90000000000	0.99862221705363	-86.675036895850
201.00000000000	0.99875715831950	-87.142261304909
201.10000000000	0.99888832699169	-87.609741153040
201.20000000000	0.99901577079381	-88.077476208654
201.30000000000	0.99913953735746	-88.545466271322
201.40000000000	0.99925967421300	-89.013711171594
201.50000000000	0.99937622878049	-89.482210770812
201.60000000000	0.99948924836075	-89.950964960921
201.70000000000	0.99959878012654	-90.419973664270
201.80000000000	0.99970487111383	-90.889236833420
201.90000000000	0.99980756821319	-91.358754450934
202.00000000000	0.99990691816134	-91.828526529167
202.10000000000	1.0000000000000	-92.298553110067
202.20000000000	1.0000000000000	-92.768834264947
202.30000000000	1.0000000000000	-93.239370094267
202.40000000000	1.0000000000000	-93.710160727420
202.50000000000	1.0000000000000	-94.181206322494
202.60000000000	1.0000000000000	-94.652507066053
202.70000000000	1.0000000000000	-95.124063172889
202.80000000000	1.0000000000000	-95.595874885802
202.90000000000	1.0000000000000	-96.067942475346
203.00000000000	1.0000000000000	-96.540266239592
203.10000000000	1.0000000000000	-97.012846503886
203.20000000000	1.0000000000000	-97.485683620590
203.30000000000	1.0000000000000	-97.958777968839
203.40000000000	1.0000000000000	-98.432129954277
203.50000000000	1.0000000000000	-98.905740008812
203.60000000000	1.0000000000000	-99.379608590346
203.70000000000	1.0000000000000	-99.853736182516
203.80000000000	1.0000000000000	-100.32812329443
203.90000000000	1.0000000000000	-100.80277046041
204.00000000000	1.0000000000000	-101.27767823969
204.10000000000	1.0000000000000	-101.75284721618
204.20000000000	1.0000000000000	-102.22827799820
204.30000000000	1.0000000000000	-102.70397121816
204.40000000000	1.0000000000000	-103.17992753231
204.50000000000	1.0000000000000	-103.65614762048
204.60000000000	1.0000000000000	-104.13263218576
204.70000000000	1.0000000000000	-104.60938195425
204.80000000000	1.0000000000000	-105.08639767477
204.90000000000	1.0000000000000	-105.56368011855
205.00000000000	1.0000000000000	-106.04123007899
205.10000000000	1.0000000000000	-106.51904837133
205.20000000000	1.0000000000000	-106.99713583240
205.30000000000	1.0000000000000	-107.47549332029
205.40000000000	1.0000000000000	-107.95412171409
205.50000000000	1.0000000000000	-108.43302191358
205.60000000000	1.0000000000000	-108.91219483895
205.70000000000	1.0000000000000	-109.39164143052
205.80000000000	1.0000000000000	-109.87136264842
205.90000000000	1.0000000000000	-110.35135947229
206.00000000000	1.0000000000000	-110.83163290101
206.10000000000	1.0000000000000	-111.31218395242
206.20000000000	1.0000000000000	-111.79301366296
206.30000000000	1.0000000000000	-112.27412308744
206.40000000000	1.0000000000000	-112.75551329872
206.50000000000	1.0000000000000	-113.23718538739
206.60000000000	1.0000000000000	-113.71914046151
206.70000000000	1.0000000000000	-114.20137964630
206.80000000000	1.0000000000000	-114.68390408382
206.90000000000	1.0000000000000	-115.16671493272
207.00000000000	1.0000000000000	-115.64981336788
207.10000000000	1.0000000000000	-116.13320058020
207.20000000000	1.0000000000000	-116.61687777621
207.30000000000	1.0000000000000	-117.10084617784
207.40000000000	1.0000000000000	-117.58510702208
207.50000000000	1.0000000000000	-118.06966156073
207.60000000000	1.0000000000000	-118.55451106006
207.70000000000	1.0000000000000	-119.03965680056
207.80000000000	1.0000000000000	-119.52510007659
207.90000000000	1.0000000000000	-120.01084219613
208.00000000000	1.0000000000000	-120.49688448049
208.10000000000	1.0000000000000	-120.98322826397
208.20000000000	1.0000000000000	-121.46987489365
208.30000000000	1.0000000000000	-121.95682572899
208.40000000000	1.0000000000000	-122.44408214165
208.50000000000	1.0000000000000	-122.93164551512
208.60000000000	1.0000000000000	-123.41951724447
208.70000000000	1.0000000000000	-123.90769873606
208.80000000000	1.0000000000000	-124.39619140726
208.90000000000	1.0000000000000	-124.88499668612
209.00000000000	1.0000000000000	-125.37411601115
209.10000000000	1.0000000000000	-125.86355083099
209.20000000000	1.0000000000000	-126.35330260415
209.30000000000	1.0000000000000	-126.84337279874
209.40000000000	1.0000000000000	-127.33376289214
209.50000000000	1.0000000000000	-127.82447437079
209.60000000000	1.0000000000000	-128.31550872985
209.70000000000	1.0000000000000	-128.80686747297
209.80000000000	1.0000000000000	-129.29855211201
209.90000000000	1.0000000000000	-129.79056416674
210.00000000000	1.0000000000000	-130.28290516460
210.10000000000	1.0000000000000	-130.77557664040
210.20000000000	1.0000000000000	-131.26858013608
210.30000000000	1.0000000000000	-131.76191720044
210.40000000000	1.0000000000000	-132.25558938884
210.50000000000	1.0000000000000	-132.74959826301
210.60000000000	1.0000000000000	-133.24394539069
210.70000000000	1.0000000000000	-133.73863234547
210.80000000000	1.0000000000000	-134.23366070645
210.90000000000	1.0000000000000	-134.72903205804
211.00000000000	1.0000000000000	-135.22474798968
211.10000000000	1.0000000000000	-135.72081009558
211.20000000000	1.0000000000000	-136.21721997451
211.30000000000	1.0000000000000	-136.71397922948
211.40000000000	1.0000000000000	-137.21108946759
211.50000000000	0.99995598199825	-137.70855229967
211.60000000000	0.99990545986522	-138.20636934015
211.70000000000	0.99985453856367	-138.70454220675
211.80000000000	0.99980322802547	-139.20307252024
211.90000000000	0.99975153776673	-139.70196190425
212.00000000000	0.99969947689012	-140.20121198500
212.10000000000	0.99964705408726	-140.70082439106
212.20000000000	0.99959427764112	-141.20080075316
212.30000000000	0.99954115542862	-141.70114270392
212.40000000000	0.99948769492316	-142.20185187766
212.50000000000	0.99943390319734	-142.70292991013
212.60000000000	0.99937978692569	-143.20437843834
212.70000000000	0.99932535238751	-143.70619910033
212.80000000000	0.99927060546975	-144.20839353491
212.90000000000	0.99921555166995	-144.71096338151
213.00000000000	0.99916019609935	-145.21391027992
213.10000000000	0.99910454348592	-145.71723587010
213.20000000000	0.99904859817759	-146.22094179199
213.30000000000	0.99899236414549	-146.72502968527
213.40000000000	0.99893584498723	-147.22950118919
213.50000000000	0.99887904393036	-147.73435794234
213.60000000000	0.99882196383577	-148.23960158248
213.70000000000	0.99876460720121	-148.74523374637
213.80000000000	0.99870697616493	-149.25125606950
213.90000000000	0.99864907250929	-149.75767018598
214.00000000000	0.99859089766453	-150.26447772831
214.10000000000	0.99853245271248	-150.77168032722
214.20000000000	0.99847373839053	-151.27927961148
214.30000000000	0.99841475509549	-151.78727720773
214.40000000000	0.99835550288753	-152.29567474029
214.50000000000	0.99829598149434	-152.80447383101
214.60000000000	0.99823619031515	-153.31367609909
214.70000000000	0.99817612842495	-153.82328316091
214.80000000000	0.99811579457874	-154.33329662987
214.90000000000	0.99805518721580	-154.84371811626
215.00000000000	0.99799430446406	-155.35454922703
215.10000000000	0.99793314414454	-155.86579156574
215.20000000000	0.99787170377585	-156.37744673232
215.30000000000	0.99780998057870	-156.88951632296
215.40000000000	0.99774797148052	-157.40200192997
215.50000000000	0.99768567312016	-157.91490514163
215.60000000000	0.99762308185253	-158.42822754206
215.70000000000	0.99756019375348	-158.94197071108
215.80000000000	0.99749700462457	-159.45613622408
215.90000000000	0.99743350999801	-159.97072565189
216.00000000000	0.99736970514159	-160.48574056066
216.10000000000	0.99730558506369	-161.00118251173
216.20000000000	0.99724114451838	-161.51705306155
216.30000000000	0.99717637801046	-162.03335376150
216.40000000000	0.99711127980074	-162.55008615783
216.50000000000	0.99704584391123	-163.06725179156
216.60000000000	0.99698006413033	-163.58485219833
216.70000000000	0.99691393401832	-164.10288890833
216.80000000000	0.99684744691268	-164.62136344622
216.90000000000	0.99678059593345	-165.14027733099
217.00000000000	0.99671337398887	-165.65963207593
217.10000000000	0.99664577378081	-166.17942918850
217.20000000000	0.99657778781037	-166.69967017026
217.30000000000	0.99650940838359	-167.22035651680
217.40000000000	0.99644062761705	-167.74148971767
217.50000000000	0.99637143744366	-168.26307125630
217.60000000000	0.99630182961843	-168.78510260992
217.70000000000	0.99623179572429	-169.30758524956
217.80000000000	0.99616132717795	-169.83052063990
217.90000000000	0.99609041523587	-170.35391023929
218.00000000000	0.99601905100014	-170.87775549967
218.10000000000	0.99594722542461	-171.40205786653
218.20000000000	0.99587492932079	-171.92681877887
218.30000000000	0.99580215336402	-172.45203966916
218.40000000000	0.99572888809962	-172.97772196330
218.50000000000	0.99565512394906	-173.50386708061
218.60000000000	0.99558085121607	-174.03047643377
218.70000000000	0.99550606009303	-174.55755142887
218.80000000000	0.99543074066714	-175.08509346530
218.90000000000	0.99535488292684	-175.61310393580
219.00000000000	0.99527847676809	-176.14158422644
219.10000000000	0.99520151200083	-176.67053571663
219.20000000000	0.99512397835529	-177.19995977909
219.30000000000	0.99504586548864	-177.72985777987
219.40000000000	0.99496716299131	-178.26023107837
219.50000000000	0.99488786039360	-178.79108102734
219.60000000000	0.99480794717220	-179.32240897294
219.70000000000	0.99472741275679	-179.85421625468
219.80000000000	0.99464624653666	179.61349579445
219.90000000000	0.99456443786731	179.08072584803
220.00000000000	0.99448197607715	178.54747258611
220.10000000000	0.99439885047415	178.01373469521
220.20000000000	0.99431505035260	177.47951086825
220.30000000000	0.99423056499980	176.94479980451
220.40000000000	0.99414538370284	176.40960020956
220.50000000000	0.99405949575536	175.87391079519
220.60000000000	0.99397289046436	175.33773027938
220.70000000000	0.99388555715697	174.80105738619
220.80000000000	0.99379748518737	174.26389084569
220.90000000000	0.99370866394348	173.72622939389
221.00000000000	0.99361908285400	173.18807177266
221.10000000000	0.99352873139515	172.64941672961
221.20000000000	0.99343759909759	172.11026301801
221.30000000000	0.99334567555331	171.57060939668
221.40000000000	0.99325295042259	171.03045462990
221.50000000000	0.99315941344074	170.48979748727
221.60000000000	0.99306505442521	169.94863674362
221.70000000000	0.99296986328241	169.40697117887
221.80000000000	0.99287383001463	168.86479957791
221.90000000000	0.99277694472698	168.32212073045
222.00000000000	0.99267919763435	167.77893343090
222.10000000000	0.99258057906826	167.23523647822
222.20000000000	0.99248107948383	166.69102867578
222.30000000000	0.99238068946670	166.14630883119
222.40000000000	0.99227939973995	165.60107575613
222.50000000000	0.99217720117093	165.05532826623
222.60000000000	0.99207408477826	164.50906518084
222.70000000000	0.99197004173870	163.96228532290
222.80000000000	0.99186506339395	163.41498751875
222.90000000000	0.99175914125758	162.86717059792
223.00000000000	0.99165226702190	162.31883339295
223.10000000000	0.99154443256473	161.76997473923
223.20000000000	0.99143562995624	161.22059347471
223.30000000000	0.99132585146582	160.67068843978
223.40000000000	0.99121508956871	160.12025847702
223.50000000000	0.99110333695291	159.56930243094
223.60000000000	0.99099058652583	159.01781914785
223.70000000000	0.99087683142098	158.46580747552
223.80000000000	0.99076206500475	157.91326626304
223.90000000000	0.99064628088293	157.36019436050
224.00000000000	0.99052947290745	156.80659061879
224.10000000000	0.99041163518287	156.25245388935
224.20000000000	0.99029276207305	155.69778302386
224.30000000000	0.99017284820756	155.14257687404
224.40000000000	0.99005188848827	154.58683429133
224.50000000000	0.98992987809568	154.03055412666
224.60000000000	0.98980681249549	153.47373523011
224.70000000000	0.98968268744481	152.91637645069
224.80000000000	0.98955749899858	152.35847663598
224.90000000000	0.98943124351584	151.80003463191
225.00000000000	0.98930391766593	151.24104928237
225.10000000000	0.98917551843472	150.68151942896
225.20000000000	0.98904604313073	150.12144391066
225.30000000000	0.98891548939123	149.56082156352
225.40000000000	0.98878385518827	148.99965122029
225.50000000000	0.98865113883466	148.43793171014
225.60000000000	0.98851733898993	147.87566185831
225.70000000000	0.98838245466614	147.31284048574
225.80000000000	0.98824648523376	146.74946640874
225.90000000000	0.98810943042741	146.18553843865
226.00000000000	0.98797129035150	145.62105538146
226.10000000000	0.98783206548596	145.05601603745
226.20000000000	0.98769175669169	144.49041920079
226.30000000000	0.98755036521619	143.92426365924
226.40000000000	0.98740789269886	143.35754819368
226.50000000000	0.98726434117649	142.79027157778
226.60000000000	0.98711971308848	142.22243257757
226.70000000000	0.98697401128209	141.65402995106
226.80000000000	0.98682723901760	141.08506244784
226.90000000000	0.98667939997336	140.51552880865
227.00000000000	0.98653049825086	139.94542776497
227.10000000000	0.98638053837958	139.37475803861
227.20000000000	0.98622952532189	138.80351834126
227.30000000000	0.98607746447781	138.23170737408
227.40000000000	0.98592436168973	137.65932382723
227.50000000000	0.98577022324695	137.08636637948
227.60000000000	0.98561505589030	136.51283369768
227.70000000000	0.98545886681651	135.93872443637
227.80000000000	0.98530166368262	135.36403723730
227.90000000000	0.98514345461024	134.78877072894
228.00000000000	0.98498424818972	134.21292352604
228.10000000000	0.98482405348430	133.63649422912
228.20000000000	0.98466288003407	133.05948142400
228.30000000000	0.98450073785993	132.48188368132
228.40000000000	0.98433763746740	131.90369955602
228.50000000000	0.98417358985039	131.32492758685
228.60000000000	0.98400860649481	130.74556629588
228.70000000000	0.98384269938217	130.16561418794
228.80000000000	0.98367588099301	129.58506975015
228.90000000000	0.98350816431028	129.00393145136
229.00000000000	0.98333956282263	128.42219774162
229.10000000000	0.98317009052753	127.83986705169
229.20000000000	0.98299976193446	127.25693779242
229.30000000000	0.98282859206775	126.67340835427
229.40000000000	0.98265659646959	126.08927710670
229.50000000000	0.98248379120275	125.50454239764
229.60000000000	0.98231019285330	124.91920255294
229.70000000000	0.98213581853317	124.33325587574
229.80000000000	0.98196068588267	123.74670064594
229.90000000000	0.98178481307286	123.15953511959
230.00000000000	0.98160821880785	122.57175752829
230.10000000000	0.98143092232699	121.98336607863
230.20000000000	0.98125294340693	121.39435895155
230.30000000000	0.98107430236367	120.80473430171
230.40000000000	0.98089502005437	120.21449025693
230.50000000000	0.98071511787918	119.62362491752
230.60000000000	0.98053461778292	119.03213635566
230.70000000000	0.98035354225665	118.44002261476
230.80000000000	0.98017191433915	117.84728170881
230.90000000000	0.97998975761828	117.25391162173
231.00000000000	0.97980709623232	116.65991030672
231.10000000000	0.97962395487104	116.06527568559
231.20000000000	0.97944035877688	115.47000564804
231.30000000000	0.97925633374585	114.87409805107
231.40000000000	0.97907190612841	114.27755071818
231.50000000000	0.97888710283028	113.68036143877
231.60000000000	0.97870195131304	113.08252796736
231.70000000000	0.97851647959477	112.48404802292
231.80000000000	0.97833071625046	111.88491928813
231.90000000000	0.97814469041242	111.28513940864
232.00000000000	0.97795843177050	110.68470599236
232.10000000000	0.97777197057232	110.08361660867
232.20000000000	0.97758533762329	109.48186878770
232.30000000000	0.97739856428660	108.87946001954
232.40000000000	0.97721168248312	108.27638775346
232.50000000000	0.97702472469113	107.67264939715
232.60000000000	0.97683772394604	107.06824231588
232.70000000000	0.97665071383997	106.46316383173
232.80000000000	0.97646372852122	105.85741122277
232.90000000000	0.97627680269367	105.25098172221
233.00000000000	0.97608997161613	104.64387251755
233.10000000000	0.97590327110150	104.03608074979
233.20000000000	0.97571673751588	103.42760351248
233.30000000000	0.97553040777762	102.81843785093
233.40000000000	0.97534431935627	102.20858076125
233.50000000000	0.97515851027137	101.59802918950
233.60000000000	0.97497301909126	100.98678003073
233.70000000000	0.97478788493170	100.37483012811
233.80000000000	0.97460314745450	99.762176271924
233.90000000000	0.97441884686594	99.148815198663
234.00000000000	0.97423502391524	98.534743590025
234.10000000000	0.97405171989285	97.919958071936
234.20000000000	0.97386897662867	97.304455213543
234.30000000000	0.97368683649023	96.688231526199
234.40000000000	0.97350534238072	96.071283462419
234.50000000000	0.97332453773703	95.453607414830
234.60000000000	0.97314446652761	94.835199715092
234.70000000000	0.97296517325029	94.216056632808
234.80000000000	0.97278670293004	93.596174374410
234.90000000000	0.97260910111665	92.975549082029
235.00000000000	0.97243241388229	92.354176832337
235.10000000000	0.97225668781902	91.732053635375
235.20000000000	0.97208197003623	91.109175433350
235.30000000000	0.97190830815800	90.485538099419
235.40000000000	0.97173575032037	89.861137436437
235.50000000000	0.97156434516857	89.235969175692
235.60000000000	0.97139414185410	88.610028975605
235.70000000000	0.97122519003185	87.983312420403
235.80000000000	0.97105753985705	87.355815018775
235.90000000000	0.97089124198219	86.727532202482
236.00000000000	0.97072634755385	86.098459324953
236.10000000000	0.97056290820949	85.468591659843
236.20000000000	0.97040097607414	84.837924399553
236.30000000000	0.97024060375702	84.206452653727
236.40000000000	0.97008184434808	83.574171447709
236.50000000000	0.96992475141453	82.941075720966
236.60000000000	0.96976937899721	82.307160325468
236.70000000000	0.96961578160693	81.672420024036
236.80000000000	0.96946401422079	81.036849488649
236.90000000000	0.96931413227832	80.400443298702
237.00000000000	0.96916619167763	79.763195939233
237.10000000000	0.96902024877148	79.125101799091
237.20000000000	0.96887636036322	78.486155169069
237.30000000000	0.96873458370275	77.846350239980
237.40000000000	0.96859497648228	77.205681100690
237.50000000000	0.96845759683216	76.564141736091
237.60000000000	0.96832250331650	75.921726025023
237.70000000000	0.96818975492880	75.278427738145
237.80000000000	0.96805941108744	74.634240535734
237.90000000000	0.96793153163113	73.989157965437
238.00000000000	0.96780617681426	73.343173459951
238.10000000000	0.96768340730216	72.696280334639
238.20000000000	0.96756328416625	72.048471785078
238.30000000000	0.96744586887915	71.399740884536
238.40000000000	0.96733122330964	70.750080581374
238.50000000000	0.96721940971755	70.099483696373
238.60000000000	0.96711049074853	69.447942919974
238.70000000000	0.96700452942876	68.795450809446
238.80000000000	0.96690158915944	68.141999785960
238.90000000000	0.96680173371131	67.487582131572
239.00000000000	0.96670502721891	66.832189986112
239.10000000000	0.96661153417480	66.175815343985
239.20000000000	0.96652131942363	65.518450050856
239.30000000000	0.96643444815601	64.860085800241
239.40000000000	0.96635098590235	64.200714129981
239.50000000000	0.96627099852641	63.540326418603
239.60000000000	0.96619455221876	62.878913881565
239.70000000000	0.96612171349009	62.216467567374
239.80000000000	0.96605254916426	61.552978353573
239.90000000000	0.96598712637121	60.888436942598
240.00000000000	0.96592551253964	60.222833857490
