#Parameters = {P=600; R=140; deta_h=25; eps_Al2O3=1; eps_substrate=1; h=750; phi=0; theta=0}
#"Frequency / THz"	"SZmin(1),Zmax(1) [Mag]"	"SZmin(1),Zmax(1) [Pha in deg.]"
#---------------------------------------------------------------------------
200.00000000000	0.99379326481584	114.16863924340
200.10000000000	0.99439980805972	113.19585549570
200.20000000000	0.99498900031208	112.21596605113
200.30000000000	0.99555856957328	111.22876132716
200.40000000000	0.99610610552230	110.23402494688
200.50000000000	0.99662905086327	109.23153350380
200.60000000000	0.99712469213737	108.22105632243
200.70000000000	0.99759014997197	107.20235521543
200.80000000000	0.99802236873771	106.17518423774
200.90000000000	0.99841810558463	105.13928943887
201.00000000000	0.99877391882779	104.09440861408
201.10000000000	0.99908615565355	103.04027105576
201.20000000000	0.99935093911805	101.97659730636
201.30000000000	0.99956415441084	100.90309891448
201.40000000000	0.99972143435806	99.819478195877
201.50000000000	0.99981814414226	98.725428001715
201.60000000000	0.99984936521905	97.620631496276
201.70000000000	0.99980987841493	96.504761947091
201.80000000000	0.99969414619626	95.377482530609
201.90000000000	0.99949629410558	94.238446157034
202.00000000000	0.99921009137028	93.087295318421
202.10000000000	0.99882893069799	91.923661964660
202.20000000000	0.99834580728589	90.747167412547
202.30000000000	0.99775329708476	89.557422293761
202.40000000000	0.99704353437651	88.354026548296
202.50000000000	0.99620818874353	87.136569470576
202.60000000000	0.99523844153221	85.904629816372
202.70000000000	0.99412496194022	84.657775979420
202.80000000000	0.99285788288897	83.395566247629
202.90000000000	0.99142677687932	82.117549149685
203.00000000000	0.98982063206987	80.823263903917
203.10000000000	0.98802782886482	79.512240982316
203.20000000000	0.98603611735124	78.184002803691
203.30000000000	0.98383259598526	76.838064571015
203.40000000000	0.98140369199274	75.473935269088
203.50000000000	0.97873514402237	74.091118839645
203.60000000000	0.97581198766863	72.689115551983
203.70000000000	0.97261854456696	71.267423587971
203.80000000000	0.96913841585456	69.825540860939
203.90000000000	0.96535448088500	68.362967088307
204.00000000000	0.96124890218324	66.879206137885
204.10000000000	0.95680313772560	65.373768667411
204.20000000000	0.95199796172597	63.846175076074
204.30000000000	0.94681349519960	62.295958785291
204.40000000000	0.94122924765540	60.722669863846
204.50000000000	0.93522417133141	59.125879009477
204.60000000000	0.92877672942839	57.505181895023
204.70000000000	0.92186497980687	55.860203882131
204.80000000000	0.91446667558352	54.190605099261
204.90000000000	0.90655938398480	52.496085873097
205.00000000000	0.89812062467895	50.776392493501
205.10000000000	0.88912802860103	49.031323281717
205.20000000000	0.87955951800018	47.260734919754
205.30000000000	0.86939350806466	45.464548985722
205.40000000000	0.85860913001127	43.642758625674
205.50000000000	0.84718647495766	41.795435277349
205.60000000000	0.83510685722947	39.922735345631
205.70000000000	0.82235309499400	38.024906713939
205.80000000000	0.80890980527195	36.102294960860
205.90000000000	0.79476370947721	34.155349137815
206.00000000000	0.77990394470242	32.184626952321
206.10000000000	0.76432237504039	30.190799193416
206.20000000000	0.74801389635649	28.174653231928
206.30000000000	0.73097672715589	26.137095429640
206.40000000000	0.71321267758124	24.079152298664
206.50000000000	0.69472738819004	22.001970266392
206.60000000000	0.67553053005358	19.906813922586
206.70000000000	0.65563595794032	17.795062653692
206.80000000000	0.63506180893320	15.668205605093
206.90000000000	0.61383053980107	13.527834954088
207.00000000000	0.59196889779559	11.375637523878
207.10000000000	0.56950782124856	9.2133848203750
207.20000000000	0.54648226834352	7.0429216275104
207.30000000000	0.52293097464995	4.8661533512695
207.40000000000	0.49889614233592	2.6850323563180
207.50000000000	0.47442306629602	0.50154359098407
207.60000000000	0.44955970462334	-1.6823101535548
207.70000000000	0.42435620279324	-3.8645229533810
207.80000000000	0.39886438250312	-6.0430999785645
207.90000000000	0.37313720723943	-8.2160707109886
208.00000000000	0.34722823725992	-10.381500517830
208.10000000000	0.32119108676143	-12.537499758638
208.20000000000	0.29507889556005	-14.682229264997
208.30000000000	0.26894382668468	-16.813900386487
208.40000000000	0.24283659994688	-18.930766519630
208.50000000000	0.21680606989598	-21.031100391762
208.60000000000	0.19089885470333	-23.113145574829
208.70000000000	0.16515902056413	-25.175017040523
208.80000000000	0.13962782428551	-27.214490214436
208.90000000000	0.11434351501933	-29.228514706000
209.00000000000	0.089341194982623	-31.211933631793
209.10000000000	0.064652740124607	-33.153345659990
209.20000000000	0.040306796915878	-35.016283701521
209.30000000000	0.016329101147016	-36.556859771083
209.40000000000	0.0072631098244479	139.32489792932
209.50000000000	0.030440805030963	138.58755076708
209.60000000000	0.053195321262287	136.87080560014
209.70000000000	0.075511980020685	135.08428392615
209.80000000000	0.097380217562032	133.29340495394
209.90000000000	0.11879207161230	131.51427159619
210.00000000000	0.13974193167162	129.75269683426
210.10000000000	0.16022633861348	128.01120147611
210.20000000000	0.18024379178846	126.29096380597
210.30000000000	0.19979456031359	124.59251665413
210.40000000000	0.21888049964837	122.91604215636
210.50000000000	0.23750487506482	121.26151300172
210.60000000000	0.25567219342521	119.62876725990
210.70000000000	0.27338804435187	118.01755152529
210.80000000000	0.29065895153866	116.42754769320
210.90000000000	0.30749223465130	114.85839068352
211.00000000000	0.32389588200389	113.30968084412
211.10000000000	0.33987843398201	111.78099304782
211.20000000000	0.35544887700853	110.27188362504
211.30000000000	0.37061654771112	108.78189580897
211.40000000000	0.38539104684723	107.31056411161
211.50000000000	0.39978216246851	105.85741790007
211.60000000000	0.41379980175694	104.42198435330
211.70000000000	0.42745393093668	103.00379092472
211.80000000000	0.44075452265370	101.60236740111
211.90000000000	0.45371151021686	100.21724762563
212.00000000000	0.46633474810683	98.847970937235
212.10000000000	0.47863397817873	97.494083368072
212.20000000000	0.49061880101135	96.155138632946
212.30000000000	0.50229865188503	94.830698938952
212.40000000000	0.51368278090361	93.520335639287
212.50000000000	0.52478023680929	92.223629751692
212.60000000000	0.53559985407387	90.940172359278
212.70000000000	0.54615024288380	89.669564909199
212.80000000000	0.55643978166938	88.411419422709
212.90000000000	0.56647661186027	87.165358628546
213.00000000000	0.57626863457982	85.931016030113
213.10000000000	0.58582350901872	84.708035915754
213.20000000000	0.59514865225520	83.496073320292
213.30000000000	0.60425124031344	82.294793945055
213.40000000000	0.61313821027436	81.103874042768
213.50000000000	0.62181626327398	79.923000272925
213.60000000000	0.63029186824278	78.751869532584
213.70000000000	0.63857126625741	77.590188766941
213.80000000000	0.64666047539099	76.437674763478
213.90000000000	0.65456529596247	75.294053933032
214.00000000000	0.66229131609816	74.159062080698
214.10000000000	0.66984391752949	73.032444169094
214.20000000000	0.67722828156145	71.913954076195
214.30000000000	0.68444939515491	70.803354349646
214.40000000000	0.69151205707386	69.700415959179
214.50000000000	0.69842088405599	68.604918048561
214.60000000000	0.70518031697099	67.516647688262
214.70000000000	0.71179462693633	66.435399629877
214.80000000000	0.71826792136565	65.360976063143
214.90000000000	0.72460414992837	64.293186376297
215.00000000000	0.73080711040353	63.231846920345
215.10000000000	0.73688045441358	62.176780777757
215.20000000000	0.74282769302712	61.127817535956
215.30000000000	0.74865220222151	60.084793065929
215.40000000000	0.75435722819899	59.047549306202
215.50000000000	0.75994589255117	58.015934052338
215.60000000000	0.76542119726885	56.989800752101
215.70000000000	0.77078602959503	55.969008306353
215.80000000000	0.77604316672043	54.953420875729
215.90000000000	0.78119528032170	53.942907693082
216.00000000000	0.78624494094312	52.937342881690
216.10000000000	0.79119462222374	51.936605279158
216.20000000000	0.79604670497186	50.940578266962
216.30000000000	0.80080348108978	49.949149605533
216.40000000000	0.80546715735175	48.962211274799
216.50000000000	0.81003985903849	47.979659320050
216.60000000000	0.81452363343186	47.001393703033
216.70000000000	0.81892045317341	46.027318158125
216.80000000000	0.82323221949076	45.057340053469
216.90000000000	0.82746076529567	44.091370256929
217.00000000000	0.83160785815784	43.129323006723
217.10000000000	0.83567520315850	42.171115786601
217.20000000000	0.83966444562774	41.216669205427
217.30000000000	0.84357717376960	40.265906881016
217.40000000000	0.84741492117882	39.318755328101
217.50000000000	0.85117916925319	38.375143850281
217.60000000000	0.85487134950520	37.435004435822
217.70000000000	0.85849284577682	36.498271657173
217.80000000000	0.86204499636094	35.564882574076
217.90000000000	0.86552909603298	34.634776640133
218.00000000000	0.86894639799632	33.707895612716
218.10000000000	0.87229811574451	32.784183466086
218.20000000000	0.87558542484385	31.863586307628
218.30000000000	0.87880946463920	30.946052297061
218.40000000000	0.88197133988618	30.031531568537
218.50000000000	0.88507212231255	29.119976155512
218.60000000000	0.88811285211173	28.211339918281
218.70000000000	0.89109453937099	27.305578474100
218.80000000000	0.89401816543704	26.402649129771
218.90000000000	0.89688468422144	25.502510816629
219.00000000000	0.89969502344836	24.605124027814
219.10000000000	0.90245008584680	23.710450757762
219.20000000000	0.90515075028979	22.818454443834
219.30000000000	0.90779787288235	21.929099909989
219.40000000000	0.91039228800067	21.042353312443
219.50000000000	0.91293480928410	20.158182087232
219.60000000000	0.91542623058216	19.276554899611
219.70000000000	0.91786732685817	18.397441595224
219.80000000000	0.92025885505141	17.520813152983
219.90000000000	0.92260155489940	16.646641639593
220.00000000000	0.92489614972190	15.774900165654
220.10000000000	0.92714334716830	14.905562843309
220.20000000000	0.92934383992973	14.038604745351
220.30000000000	0.93149830641748	13.174001865769
220.40000000000	0.93360741140894	12.311731081658
220.50000000000	0.93567180666258	11.451770116461
220.60000000000	0.93769213150303	10.594097504487
220.70000000000	0.93966901337763	9.7386925566742
220.80000000000	0.94160306838557	8.8855353275351
220.90000000000	0.94349490178074	8.0346065832685
221.00000000000	0.94534510844943	7.1858877709778
221.10000000000	0.94715427336382	6.3393609889709
221.20000000000	0.94892297201237	5.4950089581020
221.30000000000	0.95065177080805	4.6528149941191
221.40000000000	0.95234122747528	3.8127629809885
221.50000000000	0.95399189141654	2.9748373451591
221.60000000000	0.95560430405952	2.1390230307406
221.70000000000	0.95717899918559	1.3053054755636
221.80000000000	0.95871650324038	0.47367058809361
221.90000000000	0.96021733562736	-0.35589527482674
222.00000000000	0.96168200898500	-1.1834053294377
222.10000000000	0.96311102944834	-2.0088723857442
222.20000000000	0.96450489689562	-2.8323088674482
222.30000000000	0.96586410518060	-3.6537268311540
222.40000000000	0.96718914235130	-4.4731379848671
222.50000000000	0.96848049085571	-5.2905537058138
222.60000000000	0.96973862773502	-6.1059850575955
222.70000000000	0.97096402480509	-6.9194428067050
222.80000000000	0.97215714882656	-7.7309374384196
222.90000000000	0.97331846166423	-8.5404791720922
223.00000000000	0.97444842043616	-9.3480779758610
223.10000000000	0.97554747765303	-10.153743580790
223.20000000000	0.97661608134825	-10.957485494465
223.30000000000	0.97765467519921	-11.759313014053
223.40000000000	0.97866369864015	-12.559235238852
223.50000000000	0.97964358696710	-13.357261082336
223.60000000000	0.98059477143532	-14.153399283722
223.70000000000	0.98151767934949	-14.947658419058
223.80000000000	0.98241273414724	-15.740046911868
223.90000000000	0.98328035547623	-16.530573043347
224.00000000000	0.98412095926520	-17.319244962132
224.10000000000	0.98493495778930	-18.106070693656
224.20000000000	0.98572275973008	-18.891058149111
224.30000000000	0.98648477023035	-19.674215134005
224.40000000000	0.98722139094435	-20.455549356358
224.50000000000	0.98793302008336	-21.235068434526
224.60000000000	0.98862005245720	-22.012779904672
224.70000000000	0.98928287951173	-22.788691227894
224.80000000000	0.98992188936273	-23.562809797029
224.90000000000	0.99053746682625	-24.335142943123
225.00000000000	0.99112999344593	-25.105697941608
225.10000000000	0.99169984751716	-25.874482018160
225.20000000000	0.99224740410862	-26.641502354285
225.30000000000	0.99277303508123	-27.406766092608
225.40000000000	0.99327710910473	-28.170280341902
225.50000000000	0.99375999167206	-28.932052181850
225.60000000000	0.99422204511187	-29.692088667553
225.70000000000	0.99466362859908	-30.450396833794
225.80000000000	0.99508509816389	-31.206983699067
225.90000000000	0.99548680669920	-31.961856269374
226.00000000000	0.99586910396677	-32.715021541803
226.10000000000	0.99623233660208	-33.466486507896
226.20000000000	0.99657684811822	-34.216258156811
226.30000000000	0.99690297890869	-34.964343478282
226.40000000000	0.99721106624950	-35.710749465391
226.50000000000	0.99750144430046	-36.455483117163
226.60000000000	0.99777444410590	-37.198551440974
226.70000000000	0.99803039359490	-37.939961454793
226.80000000000	0.99826961758099	-38.679720189264
226.90000000000	0.99849243776169	-39.417834689625
227.00000000000	0.99869917271768	-40.154312017482
227.10000000000	0.99889013791182	-40.889159252431
227.20000000000	0.99906564568816	-41.622383493545
227.30000000000	0.99922600527082	-42.353991860729
227.40000000000	0.99937152276300	-43.083991495939
227.50000000000	0.99950250114602	-43.812389564290
227.60000000000	0.99961924027858	-44.539193255033
227.70000000000	0.99972203689617	-45.264409782431
227.80000000000	0.99981118461080	-45.988046386520
227.90000000000	0.99988697391097	-46.710110333769
228.00000000000	0.99994969216199	-47.430608917643
228.10000000000	0.99999962360671	-48.149549459071
228.20000000000	1.0000000000000	-48.866939306825
228.30000000000	1.0000000000000	-49.582785837812
228.40000000000	1.0000000000000	-50.297096457288
228.50000000000	1.0000000000000	-51.009878598992
228.60000000000	1.0000000000000	-51.721139725208
228.70000000000	1.0000000000000	-52.430887326757
228.80000000000	1.0000000000000	-53.139128922924
228.90000000000	0.99997183017725	-53.845872061321
229.00000000000	0.99991895701000	-54.551124317692
229.10000000000	0.99985596821095	-55.254893295662
229.20000000000	0.99978311385716	-55.957186626432
229.30000000000	0.99970064095014	-56.658011968428
229.40000000000	0.99960879342347	-57.357377006900
229.50000000000	0.99950781215093	-58.055289453476
229.60000000000	0.99939793495529	-58.751757045682
229.70000000000	0.99927939661773	-59.446787546415
229.80000000000	0.99915242888775	-60.140388743388
229.90000000000	0.99901726049375	-60.832568448532
230.00000000000	0.99887411715421	-61.523334497381
230.10000000000	0.99872322158936	-62.212694748414
230.20000000000	0.99856479353353	-62.900657082382
230.30000000000	0.99839904974799	-63.587229401602
230.40000000000	0.99822620403440	-64.272419629235
230.50000000000	0.99804646724871	-64.956235708543
230.60000000000	0.99786004731575	-65.638685602120
230.70000000000	0.99766714924419	-66.319777291123
230.80000000000	0.99746797514211	-66.999518774466
230.90000000000	0.99726272423303	-67.677918068022
231.00000000000	0.99705159287243	-68.354983203800
231.10000000000	0.99683477456473	-69.030722229119
231.20000000000	0.99661245998080	-69.705143205766
231.30000000000	0.99638483697580	-70.378254209158
231.40000000000	0.99615209060754	-71.050063327486
231.50000000000	0.99591440315524	-71.720578660865
231.60000000000	0.99567195413863	-72.389808320474
231.70000000000	0.99542492033755	-73.057760427695
231.80000000000	0.99517347581179	-73.724443113255
231.90000000000	0.99491779192139	-74.389864516363
232.00000000000	0.99465803734721	-75.054032783850
232.10000000000	0.99439437811190	-75.716956069314
232.20000000000	0.99412697760106	-76.378642532260
232.30000000000	0.99385599658482	-77.039100337256
232.40000000000	0.99358159323961	-77.698337653077
232.50000000000	0.99330392317024	-78.356362651875
232.60000000000	0.99302313943222	-79.013183508336
232.70000000000	0.99273939255428	-79.668808398853
232.80000000000	0.99245283056115	-80.323245500708
232.90000000000	0.99216359899651	-80.976502991258
233.00000000000	0.99187184094615	-81.628589047129
233.10000000000	0.99157769706130	-82.279511843424
233.20000000000	0.99128130558211	-82.929279552936
233.30000000000	0.99098280236129	-83.577900345373
233.40000000000	0.99068232088784	-84.225382386594
233.50000000000	0.99037999231099	-84.871733837854
233.60000000000	0.99007594546414	-85.516962855066
233.70000000000	0.98977030688893	-86.161077588063
233.80000000000	0.98946320085948	-86.804086179889
233.90000000000	0.98915474940651	-87.445996766084
234.00000000000	0.98884507234169	-88.086817473999
234.10000000000	0.98853428728197	-88.726556422107
234.20000000000	0.98822250967390	-89.365221719343
234.30000000000	0.98790985281802	-90.002821464446
234.40000000000	0.98759642789329	-90.639363745322
234.50000000000	0.98728234398143	-91.274856638411
234.60000000000	0.98696770809132	-91.909308208084
234.70000000000	0.98665262518336	-92.542726506034
234.80000000000	0.98633719819382	-93.175119570698
234.90000000000	0.98602152805906	-93.806495426685
235.00000000000	0.98570571373986	-94.436862084220
235.10000000000	0.98538985224555	-95.066227538603
235.20000000000	0.98507403865814	-95.694599769680
235.30000000000	0.98475836615637	-96.321986741332
235.40000000000	0.98444292603967	-96.948396400979
235.50000000000	0.98412780775205	-97.573836679093
235.60000000000	0.98381309890585	-98.198315488733
235.70000000000	0.98349888530544	-98.821840725088
235.80000000000	0.98318525097080	-99.444420265042
235.90000000000	0.98287227816094	-100.06606196674
236.00000000000	0.98256004739725	-100.68677366920
236.10000000000	0.98224863748671	-101.30656319189
236.20000000000	0.98193812554493	-101.92543833435
236.30000000000	0.98162858701915	-102.54340687587
236.40000000000	0.98132009571093	-103.16047657508
236.50000000000	0.98101272379891	-103.77665516964
236.60000000000	0.98070654186118	-104.39195037593
236.70000000000	0.98040161889774	-105.00636988871
236.80000000000	0.98009802235257	-105.61992138086
236.90000000000	0.97979581813572	-106.23261250308
237.00000000000	0.97949507064510	-106.84445088364
237.10000000000	0.97919584278820	-107.45544412811
237.20000000000	0.97889819600358	-108.06559981914
237.30000000000	0.97860219028217	-108.67492551623
237.40000000000	0.97830788418848	-109.28342875555
237.50000000000	0.97801533488154	-109.89111704969
237.60000000000	0.97772459813567	-110.49799788754
237.70000000000	0.97743572836112	-111.10407873407
237.80000000000	0.97714877862449	-111.70936703024
237.90000000000	0.97686380066895	-112.31387019281
238.00000000000	0.97658084493427	-112.91759561424
238.10000000000	0.97629996057674	-113.52055066257
238.20000000000	0.97602119548878	-114.12274268136
238.30000000000	0.97574459631845	-114.72417898955
238.40000000000	0.97547020848871	-115.32486688143
238.50000000000	0.97519807621656	-115.92481362660
238.60000000000	0.97492824253194	-116.52402646988
238.70000000000	0.97466074929639	-117.12251263135
238.80000000000	0.97439563722167	-117.72027930627
238.90000000000	0.97413294588803	-118.31733366513
239.00000000000	0.97387271376239	-118.91368285367
239.10000000000	0.97361497821629	-119.50933399287
239.20000000000	0.97335977554366	-120.10429417903
239.30000000000	0.97310714097842	-120.69857048383
239.40000000000	0.97285710871189	-121.29216995438
239.50000000000	0.97260971191000	-121.88509961334
239.60000000000	0.97236498273033	-122.47736645900
239.70000000000	0.97212295233897	-123.06897746540
