#Parameters = {P=600; R=140; deta_h=25; eps_Al2O3=1; eps_substrate=1; h=750; phi=0; theta=0}
#"Frequency / THz"	"SZmin(1),Zmax(1) [Mag]"	"SZmin(1),Zmax(1) [Pha in deg.]"
#---------------------------------------------------------------------------
200.00000000000	0.99755538327491	-83.882699096914
200.10000000000	0.99766458527565	-84.349457341820
200.20000000000	0.99777108818627	-84.816523329207
200.30000000000	0.99787492332450	-85.283896583876
200.40000000000	0.99797612195221	-85.751576652902
200.50000000000	0.99807471526939	-86.219563105608
200.60000000000	0.99817073440837	-86.687855533504
200.70000000000	0.99826421042811	-87.156453550286
200.80000000000	0.99835517430829	-87.625356791724
200.90000000000	0.99844365694382	-88.094564915663
201.00000000000	0.99852968913892	-88.564077601942
201.10000000000	0.99861330160207	-89.033894552358
201.20000000000	0.99869452493984	-89.504015490591
201.30000000000	0.99877338965197	-89.974440162127
201.40000000000	0.99884992612564	-90.445168334231
201.50000000000	0.99892416463015	-90.916199795826
201.60000000000	0.99899613531217	-91.387534357464
201.70000000000	0.99906586818946	-91.859171851237
201.80000000000	0.99913339314683	-92.331112130671
201.90000000000	0.99919873993021	-92.803355070698
202.00000000000	0.99926193814231	-93.275900567523
202.10000000000	0.99932301723682	-93.748748538554
202.20000000000	0.99938200651458	-94.221898922345
202.30000000000	0.99943893511756	-94.695351678429
202.40000000000	0.99949383202503	-95.169106787294
202.50000000000	0.99954672604841	-95.643164250261
202.60000000000	0.99959764582680	-96.117524089350
202.70000000000	0.99964661982221	-96.592186347251
202.80000000000	0.99969367631520	-97.067151087163
202.90000000000	0.99973884340038	-97.542418392677
203.00000000000	0.99978214898248	-98.017988367706
203.10000000000	0.99982362077119	-98.493861136344
203.20000000000	0.99986328627759	-98.970036842802
203.30000000000	0.99990117280999	-99.446515651213
203.40000000000	0.99993730746951	-99.923297745567
203.50000000000	0.99997171714644	-100.40038332957
203.60000000000	1.0000000000000	-100.87777262653
203.70000000000	1.0000000000000	-101.35546587924
203.80000000000	1.0000000000000	-101.83346334981
203.90000000000	1.0000000000000	-102.31176531958
204.00000000000	1.0000000000000	-102.79037208900
204.10000000000	1.0000000000000	-103.26928397745
204.20000000000	1.0000000000000	-103.74850132312
204.30000000000	1.0000000000000	-104.22802448290
204.40000000000	1.0000000000000	-104.70785383221
204.50000000000	1.0000000000000	-105.18798976487
204.60000000000	1.0000000000000	-105.66843269298
204.70000000000	1.0000000000000	-106.14918304673
204.80000000000	1.0000000000000	-106.63024127430
204.90000000000	1.0000000000000	-107.11160784171
205.00000000000	1.0000000000000	-107.59328323261
205.10000000000	1.0000000000000	-108.07526794824
205.20000000000	1.0000000000000	-108.55756250715
205.30000000000	1.0000000000000	-109.04016744517
205.40000000000	1.0000000000000	-109.52308331517
205.50000000000	1.0000000000000	-110.00631068696
205.60000000000	1.0000000000000	-110.48985014708
205.70000000000	1.0000000000000	-110.97370229869
205.80000000000	1.0000000000000	-111.45786776138
205.90000000000	1.0000000000000	-111.94234717104
206.00000000000	1.0000000000000	-112.42714117968
206.10000000000	1.0000000000000	-112.91225045526
206.20000000000	1.0000000000000	-113.39767568155
206.30000000000	1.0000000000000	-113.88341755794
206.40000000000	1.0000000000000	-114.36947679929
206.50000000000	1.0000000000000	-114.85585413577
206.60000000000	1.0000000000000	-115.34255031268
206.70000000000	1.0000000000000	-115.82956609029
206.80000000000	1.0000000000000	-116.31690224367
206.90000000000	1.0000000000000	-116.80455956253
207.00000000000	1.0000000000000	-117.29253885100
207.10000000000	1.0000000000000	-117.78084092757
207.20000000000	1.0000000000000	-118.26946662477
207.30000000000	1.0000000000000	-118.75841678914
207.40000000000	1.0000000000000	-119.24769228096
207.50000000000	1.0000000000000	-119.73729397411
207.60000000000	1.0000000000000	-120.22722275592
207.70000000000	1.0000000000000	-120.71747952696
207.80000000000	1.0000000000000	-121.20806520087
207.90000000000	1.0000000000000	-121.69898070421
208.00000000000	1.0000000000000	-122.19022697627
208.10000000000	1.0000000000000	-122.68180496886
208.20000000000	1.0000000000000	-123.17371564622
208.30000000000	1.0000000000000	-123.66595998475
208.40000000000	1.0000000000000	-124.15853897289
208.50000000000	1.0000000000000	-124.65145361093
208.60000000000	0.99999093593238	-125.14470491082
208.70000000000	0.99996638306242	-125.63829389602
208.80000000000	0.99994115053445	-126.13222160130
208.90000000000	0.99991524995368	-126.62648907257
209.00000000000	0.99988869260849	-127.12109736669
209.10000000000	0.99986148947065	-127.61604755133
209.20000000000	0.99983365119547	-128.11134070476
209.30000000000	0.99980518812207	-128.60697791567
209.40000000000	0.99977611027384	-129.10296028302
209.50000000000	0.99974642735868	-129.59928891583
209.60000000000	0.99971614876968	-130.09596493304
209.70000000000	0.99968528358560	-130.59298946331
209.80000000000	0.99965384057149	-131.09036364483
209.90000000000	0.99962182817932	-131.58808862518
210.00000000000	0.99958925454900	-132.08616556115
210.10000000000	0.99955612750891	-132.58459561850
210.20000000000	0.99952245457706	-133.08337997190
210.30000000000	0.99948824296181	-133.58251980463
210.40000000000	0.99945349956318	-134.08201630851
210.50000000000	0.99941823097389	-134.58187068368
210.60000000000	0.99938244348036	-135.08208413839
210.70000000000	0.99934614306406	-135.58265788889
210.80000000000	0.99930933540308	-136.08359315925
210.90000000000	0.99927202587305	-136.58489118115
211.00000000000	0.99923421954884	-137.08655319374
211.10000000000	0.99919592120626	-137.58858044344
211.20000000000	0.99915713532319	-138.09097418383
211.30000000000	0.99911786608157	-138.59373567537
211.40000000000	0.99907811736900	-139.09686618539
211.50000000000	0.99903789278063	-139.60036698777
211.60000000000	0.99899719562067	-140.10423936285
211.70000000000	0.99895602890482	-140.60848459728
211.80000000000	0.99891439536152	-141.11310398376
211.90000000000	0.99887229743497	-141.61809882101
212.00000000000	0.99882973728622	-142.12347041350
212.10000000000	0.99878671679603	-142.62922007131
212.20000000000	0.99874323756671	-143.13534911003
212.30000000000	0.99869930092468	-143.64185885050
212.40000000000	0.99865490792255	-144.14875061874
212.50000000000	0.99861005934208	-144.65602574572
212.60000000000	0.99856475569559	-145.16368556727
212.70000000000	0.99851899722979	-145.67173142385
212.80000000000	0.99847278392756	-146.18016466047
212.90000000000	0.99842611551086	-146.68898662647
213.00000000000	0.99837899144314	-147.19819867542
213.10000000000	0.99833141093291	-147.70780216492
213.20000000000	0.99828337293601	-148.21779845651
213.30000000000	0.99823487615815	-148.72818891544
213.40000000000	0.99818591905864	-149.23897491061
213.50000000000	0.99813649985349	-149.75015781438
213.60000000000	0.99808661651743	-150.26173900238
213.70000000000	0.99803626678817	-150.77371985346
213.80000000000	0.99798544816933	-151.28610174948
213.90000000000	0.99793415793314	-151.79888607522
214.00000000000	0.99788239312450	-152.31207421819
214.10000000000	0.99783015056402	-152.82566756849
214.20000000000	0.99777742685154	-153.33966751877
214.30000000000	0.99772421836941	-153.85407546396
214.40000000000	0.99767052128657	-154.36889280124
214.50000000000	0.99761633156150	-154.88412092988
214.60000000000	0.99756164494625	-155.39976125108
214.70000000000	0.99750645699052	-155.91581516786
214.80000000000	0.99745076304451	-156.43228408501
214.90000000000	0.99739455826364	-156.94916940881
215.00000000000	0.99733783761203	-157.46647254710
215.10000000000	0.99728059586640	-157.98419490896
215.20000000000	0.99722282762051	-158.50233790476
215.30000000000	0.99716452728838	-159.02090294598
215.40000000000	0.99710568910934	-159.53989144504
215.50000000000	0.99704630715176	-160.05930481529
215.60000000000	0.99698637531690	-160.57914447086
215.70000000000	0.99692588734392	-161.09941182655
215.80000000000	0.99686483681343	-161.62010829767
215.90000000000	0.99680321715245	-162.14123530006
216.00000000000	0.99674102163885	-162.66279424989
216.10000000000	0.99667824340494	-163.18478656360
216.20000000000	0.99661487544334	-163.70721365780
216.30000000000	0.99655091061035	-164.23007694916
216.40000000000	0.99648634163109	-164.75337785442
216.50000000000	0.99642116110435	-165.27711779007
216.60000000000	0.99635536150658	-165.80129817255
216.70000000000	0.99628893519779	-166.32592041797
216.80000000000	0.99622187442511	-166.85098594207
216.90000000000	0.99615417132846	-167.37649616023
217.00000000000	0.99608581794519	-167.90245248727
217.10000000000	0.99601680621515	-168.42885633745
217.20000000000	0.99594712798497	-168.95570912440
217.30000000000	0.99587677501419	-169.48301226106
217.40000000000	0.99580573897979	-170.01076715950
217.50000000000	0.99573401148100	-170.53897523109
217.60000000000	0.99566158404492	-171.06763788621
217.70000000000	0.99558844813130	-171.59675653431
217.80000000000	0.99551459513823	-172.12633258388
217.90000000000	0.99544001640725	-172.65636744233
218.00000000000	0.99536470322821	-173.18686251594
218.10000000000	0.99528864684522	-173.71781920993
218.20000000000	0.99521183846180	-174.24923892828
218.30000000000	0.99513426924624	-174.78112307378
218.40000000000	0.99505593033679	-175.31347304797
218.50000000000	0.99497681284819	-175.84629025111
218.60000000000	0.99489690787548	-176.37957608216
218.70000000000	0.99481620650122	-176.91333193874
218.80000000000	0.99473469980010	-177.44755921712
218.90000000000	0.99465237884479	-177.98225931226
219.00000000000	0.99456923471170	-178.51743361764
219.10000000000	0.99448525848657	-179.05308352544
219.20000000000	0.99440044126987	-179.58921042641
219.30000000000	0.99431477418303	179.87418429010
219.40000000000	0.99422824837408	179.33709923613
219.50000000000	0.99414085502338	178.79953302510
219.60000000000	0.99405258534882	178.26148427181
219.70000000000	0.99396343061277	177.72295159246
219.80000000000	0.99387338212702	177.18393360456
219.90000000000	0.99378243125915	176.64442892699
220.00000000000	0.99369056943831	176.10443617996
220.10000000000	0.99359778816066	175.56395398489
220.20000000000	0.99350407899624	175.02298096452
220.30000000000	0.99340943359393	174.48151574277
220.40000000000	0.99331384368809	173.93955694477
220.50000000000	0.99321730110409	173.39710319674
220.60000000000	0.99311979776500	172.85415312604
220.70000000000	0.99302132569638	172.31070536100
220.80000000000	0.99292187703348	171.76675853098
220.90000000000	0.99282144402667	171.22231126626
221.00000000000	0.99272001904759	170.67736219794
221.10000000000	0.99261759459509	170.13190995795
221.20000000000	0.99251416330159	169.58595317890
221.30000000000	0.99240971793864	169.03949049402
221.40000000000	0.99230425142336	168.49252053718
221.50000000000	0.99219775682458	167.94504194263
221.60000000000	0.99209022736832	167.39705334504
221.70000000000	0.99198165644428	166.84855337938
221.80000000000	0.99187203761225	166.29954068077
221.90000000000	0.99176136460719	165.75001388445
222.00000000000	0.99164963134641	165.19997162560
222.10000000000	0.99153683193446	164.64941253929
222.20000000000	0.99142296067021	164.09833526030
222.30000000000	0.99130801205237	163.54673842310
222.40000000000	0.99119198078532	162.99462066156
222.50000000000	0.99107486178573	162.44198060901
222.60000000000	0.99095665018779	161.88881689794
222.70000000000	0.99083734135008	161.33512815995
222.80000000000	0.99071693086067	160.78091302559
222.90000000000	0.99059541454392	160.22617012419
223.00000000000	0.99047278846554	159.67089808371
223.10000000000	0.99034904893925	159.11509553060
223.20000000000	0.99022419253228	158.55876108960
223.30000000000	0.99009821607153	158.00189338362
223.40000000000	0.98997111664894	157.44449103348
223.50000000000	0.98984289162802	156.88655265782
223.60000000000	0.98971353864891	156.32807687289
223.70000000000	0.98958305563488	155.76906229230
223.80000000000	0.98945144079749	155.20950752692
223.90000000000	0.98931869264267	154.64941118459
224.00000000000	0.98918480997616	154.08877186997
224.10000000000	0.98904979190963	153.52758818432
224.20000000000	0.98891363786562	152.96585872526
224.30000000000	0.98877634758360	152.40358208658
224.40000000000	0.98863792112549	151.84075685798
224.50000000000	0.98849835888102	151.27738162487
224.60000000000	0.98835766157326	150.71345496810
224.70000000000	0.98821583026413	150.14897546375
224.80000000000	0.98807286635976	149.58394168287
224.90000000000	0.98792877161559	149.01835219119
225.00000000000	0.98778354814211	148.45220554892
225.10000000000	0.98763719840971	147.88550031046
225.20000000000	0.98748972525425	147.31823502409
225.30000000000	0.98734113188181	146.75040823178
225.40000000000	0.98719142187423	146.18201846883
225.50000000000	0.98704059919369	145.61306426360
225.60000000000	0.98688866818813	145.04354413727
225.70000000000	0.98673563359600	144.47345660346
225.80000000000	0.98658150055115	143.90280016799
225.90000000000	0.98642627458771	143.33157332854
226.00000000000	0.98626996164473	142.75977457434
226.10000000000	0.98611256807115	142.18740238585
226.20000000000	0.98595410063017	141.61445523444
226.30000000000	0.98579456650405	141.04093158202
226.40000000000	0.98563397329845	140.46682988077
226.50000000000	0.98547232904713	139.89214857272
226.60000000000	0.98530964221610	139.31688608946
226.70000000000	0.98514592170804	138.74104085175
226.80000000000	0.98498117686663	138.16461126914
226.90000000000	0.98481541748063	137.58759573966
227.00000000000	0.98464865378809	137.00999264939
227.10000000000	0.98448089648028	136.43180037210
227.20000000000	0.98431215670582	135.85301726885
227.30000000000	0.98414244607442	135.27364168762
227.40000000000	0.98397177666083	134.69367196289
227.50000000000	0.98380016100851	134.11310641524
227.60000000000	0.98362761213335	133.53194335093
227.70000000000	0.98345414352724	132.95018106149
227.80000000000	0.98327976916159	132.36781782328
227.90000000000	0.98310450349077	131.78485189709
228.00000000000	0.98292836145548	131.20128152765
228.10000000000	0.98275135848600	130.61710494323
228.20000000000	0.98257351050540	130.03232035514
228.30000000000	0.98239483393264	129.44692595733
228.40000000000	0.98221534568561	128.86091992588
228.50000000000	0.98203506318407	128.27430041852
228.60000000000	0.98185400435249	127.68706557418
228.70000000000	0.98167218762285	127.09921351249
228.80000000000	0.98148963193729	126.51074233328
228.90000000000	0.98130635675074	125.92165011607
229.00000000000	0.98112238203343	125.33193491959
229.10000000000	0.98093772827328	124.74159478120
229.20000000000	0.98075241647830	124.15062771646
229.30000000000	0.98056646817871	123.55903171849
229.40000000000	0.98037990542926	122.96680475752
229.50000000000	0.98019275081118	122.37394478029
229.60000000000	0.98000502743420	121.78044970949
229.70000000000	0.97981675893837	121.18631744324
229.80000000000	0.97962796949601	120.59154585445
229.90000000000	0.97943868381320	119.99613279031
230.00000000000	0.97924892713155	119.40007607163
230.10000000000	0.97905872522968	118.80337349230
230.20000000000	0.97886810442455	118.20602281862
230.30000000000	0.97867709157298	117.60802178877
230.40000000000	0.97848571407271	117.00936811207
230.50000000000	0.97829399986366	116.41005946844
230.60000000000	0.97810197742895	115.81009350772
230.70000000000	0.97790967579584	115.20946784898
230.80000000000	0.97771712453661	114.60818007992
230.90000000000	0.97752435376937	114.00622775612
231.00000000000	0.97733139415875	113.40360840044
231.10000000000	0.97713827691642	112.80031950222
231.20000000000	0.97694503380159	112.19635851668
231.30000000000	0.97675169712156	111.59172286409
231.40000000000	0.97655829973189	110.98640992915
231.50000000000	0.97636487503664	110.38041706015
231.60000000000	0.97617145698849	109.77374156828
231.70000000000	0.97597808008891	109.16638072683
231.80000000000	0.97578477938790	108.55833177043
231.90000000000	0.97559159048404	107.94959189423
232.00000000000	0.97539854952408	107.34015825314
232.10000000000	0.97520569320270	106.73002796097
232.20000000000	0.97501305876215	106.11919808958
232.30000000000	0.97482068399156	105.50766566811
232.40000000000	0.97462860722662	104.89542768205
232.50000000000	0.97443686734855	104.28248107236
232.60000000000	0.97424550378360	103.66882273463
232.70000000000	0.97405455650209	103.05444951813
232.80000000000	0.97386406601740	102.43935822487
232.90000000000	0.97367407338501	101.82354560872
233.00000000000	0.97348462020131	101.20700837438
233.10000000000	0.97329574860244	100.58974317645
233.20000000000	0.97310750126293	99.971746618417
233.30000000000	0.97291992139436	99.353015251627
233.40000000000	0.97273305274387	98.733545574273
233.50000000000	0.97254693959257	98.113334030329
233.60000000000	0.97236162675388	97.492377008472
233.70000000000	0.97217715957192	96.870670840987
233.80000000000	0.97199358391958	96.248211802653
233.90000000000	0.97181094619664	95.624996109587
234.00000000000	0.97162929332780	95.001019918090
234.10000000000	0.97144867276068	94.376279323450
234.20000000000	0.97126913246353	93.750770358731
234.30000000000	0.97109072092319	93.124488993531
234.40000000000	0.97091348714261	92.497431132704
234.50000000000	0.97073748063860	91.869592615079
234.60000000000	0.97056275143919	91.240969212117
234.70000000000	0.97038935008130	90.611556626575
234.80000000000	0.97021732760791	89.981350491107
234.90000000000	0.97004673556542	89.350346366852
235.00000000000	0.96987762600096	88.718539741989
235.10000000000	0.96971005145925	88.085926030236
235.20000000000	0.96954406497992	87.452500569353
235.30000000000	0.96937972009436	86.818258619571
235.40000000000	0.96921707082261	86.183195362010
235.50000000000	0.96905617167008	85.547305897030
235.60000000000	0.96889707762447	84.910585242584
235.70000000000	0.96873984415220	84.273028332482
235.80000000000	0.96858452719512	83.634630014643
235.90000000000	0.96843118316687	82.995385049291
236.00000000000	0.96827986894935	82.355288107108
236.10000000000	0.96813064188901	81.714333767335
236.20000000000	0.96798355979302	81.072516515827
236.30000000000	0.96783868092551	80.429830743056
236.40000000000	0.96769606400347	79.786270742051
236.50000000000	0.96755576819283	79.141830706302
236.60000000000	0.96741785310431	78.496504727590
236.70000000000	0.96728237878906	77.850286793754
236.80000000000	0.96714940573455	77.203170786415
236.90000000000	0.96701899485999	76.555150478620
237.00000000000	0.96689120751187	75.906219532425
237.10000000000	0.96676610545933	75.256371496402
237.20000000000	0.96664375088943	74.605599803083
237.30000000000	0.96652420640234	73.953897766330
237.40000000000	0.96640753500635	73.301258578614
237.50000000000	0.96629380011285	72.647675308229
237.60000000000	0.96618306553112	71.993140896411
237.70000000000	0.96607539546303	71.337648154380
237.80000000000	0.96597085449764	70.681189760279
237.90000000000	0.96586950760556	70.023758256033
238.00000000000	0.96577142013328	69.365346044102
238.10000000000	0.96567665779735	68.705945384132
238.20000000000	0.96558528667829	68.045548389506
238.30000000000	0.96549737321448	67.384147023781
238.40000000000	0.96541298419580	66.721733097013
238.50000000000	0.96533218675711	66.058298261963
238.60000000000	0.96525504837157	65.393834010179
238.70000000000	0.96518163684371	64.728331667951
238.80000000000	0.96511202030238	64.061782392132
238.90000000000	0.96504626719335	63.394177165820
239.00000000000	0.96498444627186	62.725506793895
239.10000000000	0.96492662659474	62.055761898405
239.20000000000	0.96487287751244	61.384932913799
239.30000000000	0.96482326866064	60.713010081988
239.40000000000	0.96477786995171	60.039983447251
239.50000000000	0.96473675156576	59.365842850945
239.60000000000	0.96469998394144	58.690577926046
239.70000000000	0.96466763776634	58.014178091490
239.80000000000	0.96463978396704	57.336632546315
239.90000000000	0.96461649369887	56.657930263593
