#Parameters = {P=600; R=140; deta_h=25; eps_Al2O3=1; eps_substrate=1; h=750; phi=0; theta=0}
#"Frequency / THz"	"SZmin(1),Zmax(1) [Mag]"	"SZmin(1),Zmax(1) [Pha in deg.]"
#---------------------------------------------------------------------------
200.00000000000	0.21219982697459	3.4657986757046
200.10000000000	0.18971168590744	0.54149137848351
200.20000000000	0.16715346695770	-2.5551258436288
200.30000000000	0.14459999286567	-5.9065763204598
200.40000000000	0.12213552032264	-9.6561745531127
200.50000000000	0.099865444204230	-14.072730190128
200.60000000000	0.077948157872333	-19.717598743908
200.70000000000	0.056697382118040	-27.955989506784
200.80000000000	0.037006936330999	-42.884821960919
200.90000000000	0.022657288776963	-78.266833668866
201.00000000000	0.024742167566489	-134.46218346562
201.10000000000	0.040330389433386	-163.14007498589
201.20000000000	0.059267259352584	-175.74955016115
201.30000000000	0.078887238309275	176.97937745560
201.40000000000	0.098533139006673	171.91838246103
201.50000000000	0.11797627209367	167.96830491688
201.60000000000	0.13711488337859	164.65774277551
201.70000000000	0.15589607445074	161.75333093722
201.80000000000	0.17428980815757	159.12685823305
201.90000000000	0.19227850818045	156.70212083775
202.00000000000	0.20985225702083	154.43094323321
202.10000000000	0.22700629634514	152.28130519248
202.20000000000	0.24373958154173	150.23101456657
202.30000000000	0.26005386441279	148.26412904409
202.40000000000	0.27595306269044	146.36883104119
202.50000000000	0.29144279749697	144.53611284432
202.60000000000	0.30653003658819	142.75893432564
202.70000000000	0.32122280897161	141.03166705719
202.80000000000	0.33552997084832	139.34971781821
202.90000000000	0.34946101050022	137.70926775271
203.00000000000	0.36302588404672	136.10708797781
203.10000000000	0.37623487651760	134.54040686759
203.20000000000	0.38909848416423	133.00681295489
203.30000000000	0.40162731487618	131.50418282808
203.40000000000	0.41383200420882	130.03062683795
203.50000000000	0.42572314492694	128.58444768551
203.60000000000	0.43731122830132	127.16410844342
203.70000000000	0.44860659562909	125.76820757094
203.80000000000	0.45961939863706	124.39545917204
203.90000000000	0.47035956759483	123.04467722234
204.00000000000	0.48083678609389	121.71476283342
204.10000000000	0.49106047158089	120.40469385964
204.20000000000	0.50103976083336	119.11351632959
204.30000000000	0.51078349965926	117.84033731069
204.40000000000	0.52030023619589	116.58431890878
204.50000000000	0.52959821725414	115.34467317405
204.60000000000	0.53868538722379	114.12065773605
204.70000000000	0.54756938911944	112.91157203092
204.80000000000	0.55625756739868	111.71675401351
204.90000000000	0.56475697223239	110.53557726828
205.00000000000	0.57307436495525	109.36744845276
205.10000000000	0.58121622445432	108.21180501911
205.20000000000	0.58918875429634	107.06811317090
205.30000000000	0.59699789041610	105.93586602004
205.40000000000	0.60464930921950	104.81458191515
205.50000000000	0.61214843597450	103.70380291855
205.60000000000	0.61950045338444	102.60309341215
205.70000000000	0.62671031025456	101.51203881665
205.80000000000	0.63378273017775	100.43024441043
205.90000000000	0.64072222017824	99.357334237220
206.00000000000	0.64753307926307	98.292950092635
206.10000000000	0.65421940684072	97.236750582058
206.20000000000	0.66078511097450	96.188410242196
206.30000000000	0.66723391644443	95.147618721053
206.40000000000	0.67356937259909	94.114080010500
206.50000000000	0.67979486098173	93.087511727277
206.60000000000	0.68591360272088	92.067644438031
206.70000000000	0.69192866567852	91.054221025375
206.80000000000	0.69784297135080	90.046996091195
206.90000000000	0.70365930152225	89.045735394784
207.00000000000	0.70938030467196	88.050215323220
207.10000000000	0.71500850213418	87.060222391274
207.20000000000	0.72054629401807	86.075552769602
207.30000000000	0.72599596489083	85.096011838245
207.40000000000	0.73135968922949	84.121413764944
207.50000000000	0.73663953664641	83.151581105281
207.60000000000	0.74183747689809	82.186344424514
207.70000000000	0.74695538468137	81.225541938948
207.80000000000	0.75199504422542	80.269019175902
207.90000000000	0.75695815368674	79.316628650866
208.00000000000	0.76184632935620	78.368229561368
208.10000000000	0.76666110967946	77.423687495735
208.20000000000	0.77140395910876	76.482874156691
208.30000000000	0.77607627178071	75.545667098168
208.40000000000	0.78067937503736	74.611949475163
208.50000000000	0.78521453279187	73.681609805474
208.60000000000	0.78968294874679	72.754541742841
208.70000000000	0.79408576947110	71.830643860721
208.80000000000	0.79842408734383	70.909819446229
208.90000000000	0.80269894336681	69.991976303487
209.00000000000	0.80691132985652	69.077026566104
209.10000000000	0.81106219301640	68.164886517938
209.20000000000	0.81515243539777	67.255476422080
209.30000000000	0.81918291825320	66.348720357291
209.40000000000	0.82315446378680	65.444546061594
209.50000000000	0.82706785730726	64.542884782860
209.60000000000	0.83092384928570	63.643671135355
209.70000000000	0.83472315732535	62.746842962921
209.80000000000	0.83846646804421	61.852341207479
209.90000000000	0.84215443887646	60.960109783204
210.00000000000	0.84578769979439	60.070095455740
210.10000000000	0.84936685495613	59.182247726483
210.20000000000	0.85289248428036	58.296518721325
210.30000000000	0.85636514495242	57.412863083968
210.40000000000	0.85978537286390	56.531237873340
210.50000000000	0.86315368398884	55.651602465042
210.60000000000	0.86647057569863	54.773918456569
210.70000000000	0.86973652801855	53.898149576142
210.80000000000	0.87295200482783	53.024261594981
210.90000000000	0.87611745500553	52.152222242832
211.00000000000	0.87923331352441	51.282001126617
211.10000000000	0.88230000249449	50.413569652063
211.20000000000	0.88531793215866	49.546900948163
211.30000000000	0.88828750184122	48.681969794327
211.40000000000	0.89120910085194	47.818752550144
211.50000000000	0.89408310934714	46.957227087633
211.60000000000	0.89690989914792	46.097372725768
211.70000000000	0.89968983452006	45.239170167442
211.80000000000	0.90242327291282	44.382601438411
211.90000000000	0.90511056566142	43.527649828419
212.00000000000	0.90775205865379	42.674299834389
212.10000000000	0.91034809296043	41.822537105351
212.20000000000	0.91289900543238	40.972348389413
212.30000000000	0.91540512926506	40.123721482379
212.40000000000	0.91786679453028	39.276645178059
212.50000000000	0.92028432867944	38.431109220411
212.60000000000	0.92265805701463	37.587104257001
212.70000000000	0.92498830313273	36.744621794209
212.80000000000	0.92727538934112	35.903654153833
212.90000000000	0.92951963704700	35.064194431095
213.00000000000	0.93172136712004	34.226236454100
213.10000000000	0.93388090023086	33.389774744570
213.20000000000	0.93599855716468	32.554804479938
213.30000000000	0.93807465911204	31.721321456598
213.40000000000	0.94010952793596	30.889322054470
213.50000000000	0.94210348641882	30.058803202741
213.60000000000	0.94405685848640	29.229762346648
213.70000000000	0.94596996941317	28.402197415533
213.80000000000	0.94784314600798	27.576106791877
213.90000000000	0.94967671677863	26.751489281405
214.00000000000	0.95147101208138	25.928344084239
214.10000000000	0.95322636425065	25.106670766991
214.20000000000	0.95494310771298	24.286469235924
214.30000000000	0.95662157908682	23.467739711108
214.40000000000	0.95826211726056	22.650482701170
214.50000000000	0.95986506346466	21.834698979431
214.60000000000	0.96143076132118	21.020389560479
214.70000000000	0.96295955688615	20.207555677945
214.80000000000	0.96445179867498	19.396198762840
214.90000000000	0.96590783767705	18.586320422938
215.00000000000	0.96732802735995	17.777922422821
215.10000000000	0.96871272365842	16.971006664655
215.20000000000	0.97006228495774	16.165575169928
215.30000000000	0.97137707206332	15.361630061698
215.40000000000	0.97265744816250	14.559173547746
215.50000000000	0.97390377877771	13.758207904309
215.60000000000	0.97511643170930	12.958735460593
215.70000000000	0.97629577697381	12.160758583918
215.80000000000	0.97744218673012	11.364279665470
215.90000000000	0.97855603520379	10.569301106806
216.00000000000	0.97963769860124	9.7758253069028
216.10000000000	0.98068755502001	8.9838546498561
216.20000000000	0.98170598435141	8.1933914930304
216.30000000000	0.98269336818264	7.4044381561507
216.40000000000	0.98365008968744	6.6169969104858
216.50000000000	0.98457653351950	5.8310699689545
216.60000000000	0.98547308569755	5.0466594765591
216.70000000000	0.98634013348744	4.2637675013925
216.80000000000	0.98717806528491	3.4823960262913
216.90000000000	0.98798727049183	2.7025469407143
217.00000000000	0.98876813939052	1.9242220332998
217.10000000000	0.98952106301828	1.1474229848605
217.20000000000	0.99024643303919	0.37215136171604
217.30000000000	0.99094464161516	-0.40159139031973
217.40000000000	0.99161608127407	-1.1738039517981
217.50000000000	0.99226114477975	-1.9444851348255
217.60000000000	0.99288022500102	-2.7136338880519
217.70000000000	0.99347371478043	-3.4812493011250
217.80000000000	0.99404200680151	-4.2473306089028
217.90000000000	0.99458549346047	-5.0118771951302
218.00000000000	0.99510456673324	-5.7748885960305
218.10000000000	0.99559961804850	-6.5363645032647
218.20000000000	0.99607103815968	-7.2963047666981
218.30000000000	0.99651921701679	-8.0547093969765
218.40000000000	0.99694454364129	-8.8115785675846
218.50000000000	0.99734740600375	-9.5669126167148
218.60000000000	0.99772819090102	-10.320712048873
218.70000000000	0.99808728383768	-11.072977536136
218.80000000000	0.99842506890601	-11.823709919318
218.90000000000	0.99874192867342	-12.572910208653
219.00000000000	0.99903824406806	-13.320579584425
219.10000000000	0.99931439426774	-14.066719397326
219.20000000000	0.99957075659398	-14.811331168514
219.30000000000	0.99980770640567	-15.554416589585
219.40000000000	1.0000000000000	-16.295977522295
219.50000000000	1.0000000000000	-17.036015998042
219.60000000000	1.0000000000000	-17.774534217277
219.70000000000	1.0000000000000	-18.511534548618
219.80000000000	1.0000000000000	-19.247019527973
219.90000000000	1.0000000000000	-19.980991857273
220.00000000000	1.0000000000000	-20.713454403334
220.10000000000	1.0000000000000	-21.444410196313
220.20000000000	1.0000000000000	-22.173862428282
220.30000000000	1.0000000000000	-22.901814451496
220.40000000000	1.0000000000000	-23.628269776647
220.50000000000	1.0000000000000	-24.353232070953
220.60000000000	1.0000000000000	-25.076705156240
220.70000000000	1.0000000000000	-25.798693006798
220.80000000000	1.0000000000000	-26.519199747286
220.90000000000	1.0000000000000	-27.238229650460
221.00000000000	1.0000000000000	-27.955787134885
221.10000000000	1.0000000000000	-28.671876762571
221.20000000000	1.0000000000000	-29.386503236503
221.30000000000	1.0000000000000	-30.099671398188
221.40000000000	1.0000000000000	-30.811386225121
221.50000000000	1.0000000000000	-31.521652828184
221.60000000000	1.0000000000000	-32.230476449031
221.70000000000	1.0000000000000	-32.937862457447
221.80000000000	1.0000000000000	-33.643816348645
221.90000000000	1.0000000000000	-34.348343740591
222.00000000000	1.0000000000000	-35.051450371239
222.10000000000	1.0000000000000	-35.753142095821
222.20000000000	0.99983054424931	-36.453424884073
222.30000000000	0.99964646237066	-37.152304817465
222.40000000000	0.99945319766926	-37.849788086456
222.50000000000	0.99925102541339	-38.545880987703
222.60000000000	0.99904021714054	-39.240589921306
222.70000000000	0.99882104065215	-39.933921388045
222.80000000000	0.99859376001004	-40.625881986621
222.90000000000	0.99835863553527	-41.316478410916
223.00000000000	0.99811592380807	-42.005717447276
223.10000000000	0.99786587767156	-42.693605971788
223.20000000000	0.99760874623601	-43.380150947599
223.30000000000	0.99734477488573	-44.065359422239
223.40000000000	0.99707420528761	-44.749238524982
223.50000000000	0.99679727540142	-45.431795464226
223.60000000000	0.99651421949199	-46.113037524907
223.70000000000	0.99622526814291	-46.792972065931
223.80000000000	0.99593064827189	-47.471606517654
223.90000000000	0.99563058314785	-48.148948379385
224.00000000000	0.99532529240905	-48.825005216929
224.10000000000	0.99501499208314	-49.499784660167
224.20000000000	0.99469989460828	-50.173294400668
224.30000000000	0.99438020885562	-50.845542189355
224.40000000000	0.99405614015313	-51.516535834194
224.50000000000	0.99372789031043	-52.186283197940
224.60000000000	0.99339565764508	-52.854792195921
224.70000000000	0.99305963700953	-53.522070793865
224.80000000000	0.99272001981955	-54.188127005775
224.90000000000	0.99237699408319	-54.852968891848
225.00000000000	0.99203074443118	-55.516604556444
225.10000000000	0.99168145214766	-56.179042146107
225.20000000000	0.99132929520225	-56.840289847620
225.30000000000	0.99097444828256	-57.500355886131
225.40000000000	0.99061708282761	-58.159248523313
225.50000000000	0.99025736706187	-58.816976055578
225.60000000000	0.98989546603000	-59.473546812358
225.70000000000	0.98953154163222	-60.128969154411
225.80000000000	0.98916575266017	-60.783251472206
225.90000000000	0.98879825483351	-61.436402184350
226.00000000000	0.98842920083664	-62.088429736067
226.10000000000	0.98805874035643	-62.739342597736
226.20000000000	0.98768702011978	-63.389149263491
226.30000000000	0.98731418393197	-64.037858249862
226.40000000000	0.98694037271553	-64.685478094482
226.50000000000	0.98656572454853	-65.332017354856
226.60000000000	0.98619037470478	-65.977484607177
226.70000000000	0.98581445569253	-66.621888445206
226.80000000000	0.98543809729461	-67.265237479213
226.90000000000	0.98506142660867	-67.907540334970
227.00000000000	0.98468456808688	-68.548805652821
227.10000000000	0.98430764357679	-69.189042086791
227.20000000000	0.98393077236201	-69.828258303774
227.30000000000	0.98355407120202	-70.466462982782
227.40000000000	0.98317765437453	-71.103664814247
227.50000000000	0.98280163371520	-71.739872499405
227.60000000000	0.98242611865883	-72.375094749728
227.70000000000	0.98205121628151	-73.009340286436
227.80000000000	0.98167703134069	-73.642617840080
227.90000000000	0.98130366631695	-74.274936150179
228.00000000000	0.98093122145550	-74.906303964941
228.10000000000	0.98055979480720	-75.536730041050
228.20000000000	0.98018948227061	-76.166223143554
228.30000000000	0.97982037763255	-76.794792045764
228.40000000000	0.97945257261053	-77.422445529324
228.50000000000	0.97908615689356	-78.049192384272
228.60000000000	0.97872121818444	-78.675041409253
228.70000000000	0.97835784224082	-79.300001411775
228.80000000000	0.97799611291682	-79.924081208557
228.90000000000	0.97763611220572	-80.547289626016
229.00000000000	0.97727792028023	-81.169635500773
229.10000000000	0.97692161553544	-81.791127680316
229.20000000000	0.97656727463055	-82.411775023744
229.30000000000	0.97621497253043	-83.031586402616
229.40000000000	0.97586478254840	-83.650570701916
229.50000000000	0.97551677638775	-84.268736821127
229.60000000000	0.97517102418507	-84.886093675439
229.70000000000	0.97482759455181	-85.502650197063
229.80000000000	0.97448655461802	-86.118415336708
229.90000000000	0.97414797007456	-86.733398065158
230.00000000000	0.97381190521698	-87.347607375039
230.10000000000	0.97347842298866	-87.961052282708
230.20000000000	0.97314758502525	-88.573741830318
230.30000000000	0.97281945169845	-89.185685088065
230.40000000000	0.97249408216108	-89.796891156595
230.50000000000	0.97217153439230	-90.407369169639
230.60000000000	0.97185186524332	-91.017128296817
230.70000000000	0.97153513048384	-91.626177746686
230.80000000000	0.97122138484913	-92.234526770024
230.90000000000	0.97091068208795	-92.842184663342
231.00000000000	0.97060307501097	-93.449160772678
231.10000000000	0.97029861554097	-94.055464497688
231.20000000000	0.96999735476267	-94.661105296004
231.30000000000	0.96969934297519	-95.266092687960
231.40000000000	0.96940462974497	-95.870436261649
231.50000000000	0.96911326395992	-96.474145678357
231.60000000000	0.96882529388564	-97.077230678409
231.70000000000	0.96854076722317	-97.679701087458
231.80000000000	0.96825973116836	-98.281566823237
231.90000000000	0.96798223247323	-98.882837902822
232.00000000000	0.96770831751048	-99.483524450473
232.10000000000	0.96743803233884	-100.08363670604
232.20000000000	0.96717142277307	-100.68318503403
232.30000000000	0.96690853445529	-101.28217993342
232.40000000000	0.96664941293087	-101.88063204818
232.50000000000	0.96639410372674	-102.47855217866
232.60000000000	0.96614265243521	-103.07595129393
232.70000000000	0.96589510480083	-103.67284054503
232.80000000000	0.96565150681289	-104.26923127941
232.90000000000	0.96541190480306	-104.86513505647
233.00000000000	0.96517634554910	-105.46056366453
233.10000000000	0.96494487638489	-106.05552913913
233.20000000000	0.96471754531797	-106.65004378294
233.30000000000	0.96449440115508	-107.24412018748
233.40000000000	0.96427549363620	-107.83777125668
233.50000000000	0.96406087357921	-108.43101023264
233.60000000000	0.96385059303469	-109.02385072367
233.70000000000	0.96364470545347	-109.61630673501
233.80000000000	0.96344326586739	-110.20839270237
233.90000000000	0.96324633108528	-110.80012352878
234.00000000000	0.96305395990591	-111.39151462494
234.10000000000	0.96286621334939	-111.98258195364
234.20000000000	0.96268315491002	-112.57334207858
234.30000000000	0.96250485083251	-113.16381221827
234.40000000000	0.96233137041481	-113.75401030552
234.50000000000	0.96216278634066	-114.34395505322
234.60000000000	0.96199917504594	-114.93366602732
234.70000000000	0.96184061712272	-115.52316372776
234.80000000000	0.96168719776632	-116.11246967855
234.90000000000	0.96153900727112	-116.70160652813
235.00000000000	0.96139614158151	-117.29059816153
235.10000000000	0.96125870290580	-117.87946982578
235.20000000000	0.96112680040205	-118.46824827066
235.30000000000	0.96100055094594	-119.05696190694
235.40000000000	0.96088007999307	-119.64564098464
235.50000000000	0.96076552254951	-120.23431779444
235.60000000000	0.96065702426750	-120.82302689583
235.70000000000	0.96055474268583	-121.41180537616
235.80000000000	0.96045884863776	-122.00069314569
235.90000000000	0.96036952785458	-122.58973327456
236.00000000000	0.96028698279692	-123.17897237885
236.10000000000	0.96021143475341	-123.76846106435
236.20000000000	0.96014312625353	-124.35825443819
236.30000000000	0.96008232385152	-124.94841270103
236.40000000000	0.96002932134992	-125.53900183482
236.50000000000	0.95998444354649	-126.13009440480
236.60000000000	0.95994805060682	-126.72177049834
236.70000000000	0.95992054318845	-127.31411882890
236.80000000000	0.95990236847204	-127.90723803997
236.90000000000	0.95989402729295	-128.50123825244
237.00000000000	0.95989608261540	-129.09624291051
237.10000000000	0.95990916965374	-129.69239099515
237.20000000000	0.95993400802720	-130.28983969393
237.30000000000	0.95997141644163	-130.88876764062
237.40000000000	0.96002233053289	-131.48937887186
237.50000000000	0.96008782469586	-132.09190769307
237.60000000000	0.96016913897726	-132.69662470741
237.70000000000	0.96026771245695	-133.30384434525
237.80000000000	0.96038522501878	-133.91393434903
237.90000000000	0.96052365007569	-134.52732783273
238.00000000000	0.96068532174900	-135.14453876980
238.10000000000	0.96087302133828	-135.76618210345
238.20000000000	0.96109008985687	-136.39300017278
238.30000000000	0.96134057626371	-137.02589789655
238.40000000000	0.96162943530414	-137.66599029813
238.50000000000	0.96196279541374	-138.31466773463
238.60000000000	0.96234832734227	-138.97368703259
238.70000000000	0.96279576043488	-139.64530138187
238.80000000000	0.96331762014431	-140.33244967953
238.90000000000	0.96393030515479	-141.03903967761
239.00000000000	0.96465570022424	-141.77038400770
239.10000000000	0.96552366035876	-142.53389485071
239.20000000000	0.96657596194510	-143.34023576572
239.30000000000	0.96787282141106	-144.20532461145
239.40000000000	0.96950410590256	-145.15402345296
239.50000000000	0.97160952246437	-146.22744122098
239.60000000000	0.97441672970766	-147.49877094108
239.70000000000	0.97831556944186	-149.11206926345
