#Parameters = {P=600; R=140; deta_h=25; eps_Al2O3=1; eps_substrate=1; h=750; phi=0; theta=0}
#"Frequency / THz"	"SZmin(1),Zmax(1) [Mag]"	"SZmin(1),Zmax(1) [Pha in deg.]"
#---------------------------------------------------------------------------
200.00000000000	0.92801406427519	71.863800977612
200.10000000000	0.92995461277200	71.078845577945
200.20000000000	0.93187064036099	70.293727312079
200.30000000000	0.93376188171334	69.508469734740
200.40000000000	0.93562808050016	68.723096476107
200.50000000000	0.93746898957398	67.937631230436
200.60000000000	0.93928437114188	67.152097744531
200.70000000000	0.94107399693142	66.366519806147
200.80000000000	0.94283764834774	65.580921232183
200.90000000000	0.94457511662180	64.795325856929
201.00000000000	0.94628620295163	64.009757519976
201.10000000000	0.94797071863261	63.224240054378
201.20000000000	0.94962848517998	62.438797274447
201.30000000000	0.95125933444249	61.653452963633
201.40000000000	0.95286310870528	60.868230862345
201.50000000000	0.95443966078497	60.083154655746
201.60000000000	0.95598885411488	59.298247961439
201.70000000000	0.95751056281925	58.513534317193
201.80000000000	0.95900467178036	57.729037168820
201.90000000000	0.96047107669331	56.944779857705
202.00000000000	0.96190968411318	56.160785608629
202.10000000000	0.96332041149207	55.377077517519
202.20000000000	0.96470318720499	54.593678539315
202.30000000000	0.96605795056874	53.810611475651
202.40000000000	0.96738465184846	53.027898962857
202.50000000000	0.96868325225727	52.245563459815
202.60000000000	0.96995372394484	51.463627236005
202.70000000000	0.97119604997703	50.682112359470
202.80000000000	0.97241022430718	49.901040684992
202.90000000000	0.97359625173747	49.120433842318
203.00000000000	0.97475414787255	48.340313224309
203.10000000000	0.97588393906320	47.560699975421
203.20000000000	0.97698566234361	46.781614980022
203.30000000000	0.97805936535813	46.003078850938
203.40000000000	0.97910510628228	45.225111918069
203.50000000000	0.98012295373569	44.447734217024
203.60000000000	0.98111298668588	43.670965477840
203.70000000000	0.98207529434805	42.894825113836
203.80000000000	0.98300997607543	42.119332210422
203.90000000000	0.98391714124501	41.344505514068
204.00000000000	0.98479690913640	40.570363421306
204.10000000000	0.98564940880519	39.796923967679
204.20000000000	0.98647477895123	39.024204816806
204.30000000000	0.98727316778132	38.252223249459
204.40000000000	0.98804473286811	37.480996152544
204.50000000000	0.98878964100463	36.710540008185
204.60000000000	0.98950806805471	35.940870882575
204.70000000000	0.99020019880070	35.172004415030
204.80000000000	0.99086622678779	34.403955806646
204.90000000000	0.99150635416667	33.636739808996
205.00000000000	0.99212079153359	32.870370712703
205.10000000000	0.99270975776908	32.104862335630
205.20000000000	0.99327347987584	31.340228011006
205.30000000000	0.99381219281678	30.576480575178
205.40000000000	0.99432613935152	29.813632355036
205.50000000000	0.99481556987532	29.051695155063
205.60000000000	0.99528074225745	28.290680243885
205.70000000000	0.99572192168253	27.530598340337
205.80000000000	0.99613938049304	26.771459598932
205.90000000000	0.99653339803526	26.013273594582
206.00000000000	0.99690426050802	25.256049306621
206.10000000000	0.99725226081574	24.499795101914
206.20000000000	0.99757769842588	23.744518716973
206.30000000000	0.99788087923129	22.990227238944
206.40000000000	0.99816211541871	22.236927085394
206.50000000000	0.99842172534343	21.484623982631
206.60000000000	0.99866003341120	20.733322942496
206.70000000000	0.99887736996784	19.983028237362
206.80000000000	0.99907407119744	19.233743373176
206.90000000000	0.99925047902985	18.485471060289
207.00000000000	0.99940694105822	17.738213181830
207.10000000000	0.99954381046731	16.991970759299
207.20000000000	0.99966144597378	16.246743915112
207.30000000000	0.99976021177875	15.502531831662
207.40000000000	0.99984047753425	14.759332706546
207.50000000000	0.99990261832406	14.017143703454
207.60000000000	0.99994701466019	13.275960898232
207.70000000000	0.99997405249611	12.535779219489
207.80000000000	0.99998412325808	11.796592383128
207.90000000000	0.99997762389577	11.058392820002
208.00000000000	0.99995495695321	10.321171595846
208.10000000000	0.99991653066300	9.5849183225284
208.20000000000	0.99986275906344	8.8496210594225
208.30000000000	0.99979406214264	8.1152662036952
208.40000000000	0.99971086601041	7.3818383679716
208.50000000000	0.99961360310074	6.6493202436575
208.60000000000	0.99950271240814	5.9176924479892
208.70000000000	0.99937863976052	5.1869333524331
208.80000000000	0.99924183813342	4.4570188898713
208.90000000000	0.99909276800804	3.7279223373031
209.00000000000	0.99893189778173	2.9996140705630
209.10000000000	0.99875970423383	2.2720612866207
209.20000000000	0.99857667305795	1.5452276885332
209.30000000000	0.99838329946810	0.81907312689373
209.40000000000	0.99818008889057	0.093553190802734
209.50000000000	0.99796755775843	-0.63138126018724
209.60000000000	0.99774623442433	-1.3557846332581
209.70000000000	0.99751666021620	-2.0797172209281
209.80000000000	0.99727939066389	-2.8032459156025
209.90000000000	0.99703499693578	-3.5264450379578
210.00000000000	0.99678406752976	-4.2493973006873
210.10000000000	0.99652721028065	-4.9721949339876
210.20000000000	0.99626505476160	-5.6949410049955
210.30000000000	0.99599825517834	-6.4177509709364
210.40000000000	0.99572749388473	-7.1407545151218
210.50000000000	0.99545348568599	-7.8640977266963
210.60000000000	0.99517698314281	-8.5879457004356
210.70000000000	0.99489878315303	-9.3124856522284
210.80000000000	0.99461973516638	-10.037930671215
210.90000000000	0.99434075149112	-10.764524262373
211.00000000000	0.99406282028350	-11.492545876704
211.10000000000	0.99378702197529	-12.222317683816
211.20000000000	0.99351455011088	-12.954212919134
211.30000000000	0.99324673783176	-13.688666243631
211.40000000000	0.99298509159184	-14.426186699694
211.50000000000	0.99273133412395	-15.167374051128
211.60000000000	0.99248745924616	-15.912939585613
211.70000000000	0.99225580184209	-16.663732877841
211.80000000000	0.99203912735357	-17.420776627857
211.90000000000	0.99184074651463	-18.185312610009
212.00000000000	0.99166466303711	-18.958863168113
212.10000000000	0.99151576485600	-19.743314862904
212.20000000000	0.99140007386320	-20.541034313679
212.30000000000	0.99132507556882	-21.355031844494
212.40000000000	0.99130015994127	-22.189197814808
212.50000000000	0.99133721927440	-23.048652425004
212.60000000000	0.99145146989427	-23.940278075868
212.70000000000	0.99166259209523	-24.873555741681
212.80000000000	0.99199631014006	-25.861928476567
212.90000000000	0.99248652674663	-26.925123619576
213.00000000000	0.99317794245957	-28.093321416038
213.10000000000	0.99412816585426	-29.415137571469
213.20000000000	0.99540429077461	-30.974203760096
213.30000000000	0.99705070569426	-32.927441490311
213.40000000000	0.99891080815683	-35.606999909832
213.50000000000	0.99956725687426	-39.853827776705
213.60000000000	0.98752355526446	-48.525328598011
213.70000000000	0.79211269865656	-77.878933796416
213.80000000000	0.51171163592771	17.784397487799
213.90000000000	0.84299426265577	-9.5684293569057
214.00000000000	0.90632163079274	-17.897903588535
214.10000000000	0.92943094007877	-22.035868856019
214.20000000000	0.94076978648583	-24.664227795527
214.30000000000	0.94727443657055	-26.585885179002
214.40000000000	0.95136746800755	-28.121090274987
214.50000000000	0.95409649218870	-29.422101909028
214.60000000000	0.95598341310570	-30.570422224599
214.70000000000	0.95731580085122	-31.613576805170
214.80000000000	0.95826452338747	-32.581133704317
214.90000000000	0.95893723706190	-33.492447327290
215.00000000000	0.95940502883255	-34.360715833946
215.10000000000	0.95971667700788	-35.195247848241
215.20000000000	0.95990674393469	-36.002796867695
215.30000000000	0.96000039609364	-36.788381843433
215.40000000000	0.96001639431051	-37.555810752546
215.50000000000	0.95996901433985	-38.308025402879
215.60000000000	0.95986931796886	-39.047334825815
215.70000000000	0.95972601653485	-39.775577098878
215.80000000000	0.95954607117081	-40.494233952381
215.90000000000	0.95933511861249	-41.204513484246
216.00000000000	0.95909777878319	-41.907410875956
216.10000000000	0.95883788061972	-42.603753644699
216.20000000000	0.95855863032010	-43.294235838566
216.30000000000	0.95826273837096	-43.979444202632
216.40000000000	0.95795251662282	-44.659878431803
216.50000000000	0.95762995330388	-45.335967012152
216.60000000000	0.95729677158153	-46.008079731863
216.70000000000	0.95695447571420	-46.676537650288
216.80000000000	0.95660438774418	-47.341621107289
216.90000000000	0.95624767691062	-48.003576207430
217.00000000000	0.95588538340905	-48.662620106887
217.10000000000	0.95551843772404	-49.318945352811
217.20000000000	0.95514767646802	-49.972723467075
217.30000000000	0.95477385544259	-50.624107923193
217.40000000000	0.95439766047714	-51.273236632696
217.50000000000	0.95401971647598	-51.920234032437
217.60000000000	0.95364059501406	-52.565212845391
217.70000000000	0.95326082074888	-53.208275572822
217.80000000000	0.95288087686221	-53.849515764277
217.90000000000	0.95250120970196	-54.489019102970
218.00000000000	0.95212223276099	-55.126864336993
218.10000000000	0.95174433010506	-55.763124081275
218.20000000000	0.95136785933824	-56.397865510652
218.30000000000	0.95099315418138	-57.031150960944
218.40000000000	0.95062052672226	-57.663038451886
218.50000000000	0.95025026938854	-58.293582143561
218.60000000000	0.94988265668413	-58.922832735993
218.70000000000	0.94951794672297	-59.550837819952
218.80000000000	0.94915638258963	-60.177642185885
218.90000000000	0.94879819354997	-60.803288096622
219.00000000000	0.94844359613183	-61.427815528811
219.10000000000	0.94809279509399	-62.051262387189
219.20000000000	0.94774598429593	-62.673664695202
219.30000000000	0.94740334748280	-63.295056765061
219.40000000000	0.94706505899397	-63.915471349701
219.50000000000	0.94673128440584	-64.534939779015
219.60000000000	0.94640218111537	-65.153492082150
219.70000000000	0.94607789887193	-65.771157097601
219.80000000000	0.94575858026275	-66.387962572524
219.90000000000	0.94544436115661	-67.003935252478
220.00000000000	0.94513537111128	-67.619100962734
220.10000000000	0.94483173374708	-68.233484682069
220.20000000000	0.94453356709135	-68.847110609882
220.30000000000	0.94424098389513	-69.460002227349
220.40000000000	0.94395409192654	-70.072182353267
220.50000000000	0.94367299424132	-70.683673195144
220.60000000000	0.94339778943394	-71.294496396037
220.70000000000	0.94312857187054	-71.904673077580
220.80000000000	0.94286543190476	-72.514223879524
220.90000000000	0.94260845607901	-73.123168996286
221.00000000000	0.94235772731190	-73.731528210604
221.10000000000	0.94211332507267	-74.339320924798
221.20000000000	0.94187532554433	-74.946566189671
221.30000000000	0.94164380177575	-75.553282731403
221.40000000000	0.94141882382441	-76.159488976620
221.50000000000	0.94120045888957	-76.765203075718
221.60000000000	0.94098877143730	-77.370442924715
221.70000000000	0.94078382331795	-77.975226185732
221.80000000000	0.94058567387595	-78.579570306182
221.90000000000	0.94039438005346	-79.183492536848
222.00000000000	0.94020999648754	-79.787009948944
222.10000000000	0.94003257560171	-80.390139450220
222.20000000000	0.93986216769205	-80.992897800210
222.30000000000	0.93969882100832	-81.595301624748
222.40000000000	0.93954258183075	-82.197367429760
222.50000000000	0.93939349454190	-82.799111614413
222.60000000000	0.93925160169499	-83.400550483734
222.70000000000	0.93911694407813	-84.001700260679
222.80000000000	0.93898956077497	-84.602577097733
222.90000000000	0.93886948922215	-85.203197088148
223.00000000000	0.93875676526343	-85.803576276729
223.10000000000	0.93865142320095	-86.403730670377
223.20000000000	0.93855349584350	-87.003676248242
223.30000000000	0.93846301455258	-87.603428971718
223.40000000000	0.93838000928511	-88.203004794130
223.50000000000	0.93830450863472	-88.802419670296
223.60000000000	0.93823653987010	-89.401689565869
223.70000000000	0.93817612897136	-90.000830466590
223.80000000000	0.93812330066451	-90.599858387404
223.90000000000	0.93807807845373	-91.198789381520
224.00000000000	0.93804048465194	-91.797639549388
224.10000000000	0.93801054040936	-92.396425047664
224.20000000000	0.93798826574051	-92.995162098152
224.30000000000	0.93797367954952	-93.593866996774
224.40000000000	0.93796679965368	-94.192556122564
224.50000000000	0.93796764280550	-94.791245946719
224.60000000000	0.93797622471337	-95.389953041739
224.70000000000	0.93799256006040	-95.988694090656
224.80000000000	0.93801666252213	-96.587485896392
224.90000000000	0.93804854478268	-97.186345391259
225.00000000000	0.93808821854934	-97.785289646624
225.10000000000	0.93813569456614	-98.384335882759
225.20000000000	0.93819098262566	-98.983501478913
225.30000000000	0.93825409157965	-99.582803983582
225.40000000000	0.93832502934825	-100.18226112508
225.50000000000	0.93840380292790	-100.78189082237
225.60000000000	0.93849041839776	-101.38171119616
225.70000000000	0.93858488092484	-101.98174058043
225.80000000000	0.93868719476768	-102.58199753421
225.90000000000	0.93879736327860	-103.18250085378
226.00000000000	0.93891538890446	-103.78326958531
226.10000000000	0.93904127318608	-104.38432303795
226.20000000000	0.93917501675596	-104.98568079731
226.30000000000	0.93931661933456	-105.58736273959
226.40000000000	0.93946607972480	-106.18938904611
226.50000000000	0.93962339580511	-106.79178021855
226.60000000000	0.93978856452057	-107.39455709475
226.70000000000	0.93996158187223	-107.99774086518
226.80000000000	0.94014244290462	-108.60135309013
226.90000000000	0.94033114169124	-109.20541571770
227.00000000000	0.94052767131800	-109.80995110253
227.10000000000	0.94073202386433	-110.41498202548
227.20000000000	0.94094419038217	-111.02053171414
227.30000000000	0.94116416087236	-111.62662386446
227.40000000000	0.94139192425858	-112.23328266331
227.50000000000	0.94162746835840	-112.84053281226
227.60000000000	0.94187077985153	-113.44839955254
227.70000000000	0.94212184424491	-114.05690869129
227.80000000000	0.94238064583449	-114.66608662920
227.90000000000	0.94264716766346	-115.27596038965
228.00000000000	0.94292139147674	-115.88655764944
228.10000000000	0.94320329767131	-116.49790677122
228.20000000000	0.94349286524231	-117.11003683773
228.30000000000	0.94379007172435	-117.72297768808
228.40000000000	0.94409489312780	-118.33675995608
228.50000000000	0.94440730386968	-118.95141511086
228.60000000000	0.94472727669863	-119.56697549999
228.70000000000	0.94505478261360	-120.18347439521
228.80000000000	0.94538979077557	-120.80094604100
228.90000000000	0.94573226841197	-121.41942570627
229.00000000000	0.94608218071289	-122.03894973938
229.10000000000	0.94643949071864	-122.65955562674
229.20000000000	0.94680415919767	-123.28128205539
229.30000000000	0.94717614451417	-123.90416897975
229.40000000000	0.94755540248426	-124.52825769303
229.50000000000	0.94794188621988	-125.15359090367
229.60000000000	0.94833554595906	-125.78021281722
229.70000000000	0.94873632888135	-126.40816922420
229.80000000000	0.94914417890704	-127.03750759447
229.90000000000	0.94955903647843	-127.66827717877
230.00000000000	0.94998083832141	-128.30052911800
230.10000000000	0.95040951718539	-128.93431656113
230.20000000000	0.95084500155929	-129.56969479252
230.30000000000	0.95128721536099	-130.20672136962
230.40000000000	0.95173607759757	-130.84545627207
230.50000000000	0.95219150199289	-131.48596206353
230.60000000000	0.95265339657909	-132.12830406741
230.70000000000	0.95312166324779	-132.77255055819
230.80000000000	0.95359619725630	-133.41877296995
230.90000000000	0.95407688668357	-134.06704612416
231.00000000000	0.95456361182979	-134.71744847883
231.10000000000	0.95505624455267	-135.37006240172
231.20000000000	0.95555464753249	-136.02497447033
231.30000000000	0.95605867345660	-136.68227580220
231.40000000000	0.95656816411301	-137.34206241909
231.50000000000	0.95708294938057	-138.00443564967
231.60000000000	0.95760284610166	-138.66950257562
231.70000000000	0.95812765682080	-139.33737652715
231.80000000000	0.95865716836970	-140.00817763461
231.90000000000	0.95919115027604	-140.68203344435
232.00000000000	0.95972935296927	-141.35907960801
232.10000000000	0.96027150575156	-142.03946065621
232.20000000000	0.96081731449647	-142.72333086953
232.30000000000	0.96136645903029	-143.41085526208
232.40000000000	0.96191859014253	-144.10221069557
232.50000000000	0.96247332616078	-144.79758714560
232.60000000000	0.96303024901179	-145.49718914597
232.70000000000	0.96358889967400	-146.20123744184
232.80000000000	0.96414877290530	-146.90997088939
232.90000000000	0.96470931110381	-147.62364864736
233.00000000000	0.96526989712555	-148.34255271594
233.10000000000	0.96582984584033	-149.06699089084
233.20000000000	0.96638839415239	-149.79730021668
233.30000000000	0.96694468914124	-150.53385104332
233.40000000000	0.96749777388603	-151.27705181509
233.50000000000	0.96804657041528	-152.02735475586
233.60000000000	0.96858985906382	-152.78526265594
233.70000000000	0.96912625330394	-153.55133702360
233.80000000000	0.96965416882948	-154.32620793812
233.90000000000	0.97017178527788	-155.11058604099
234.00000000000	0.97067699843428	-155.90527723498
234.10000000000	0.97116736000871	-156.71120084233
234.20000000000	0.97164000101623	-157.52941222213
234.30000000000	0.97209153327645	-158.36113119278
234.40000000000	0.97251792135782	-159.20777809177
234.50000000000	0.97291431407407	-160.07101999859
234.60000000000	0.97327481983502	-160.95283065002
234.70000000000	0.97359220285025	-161.85556905218
234.80000000000	0.97385746586826	-162.78208400005
234.90000000000	0.97405926722435	-163.73585507883
235.00000000000	0.97418309096024	-164.72118595645
235.10000000000	0.97421004056384	-165.74347411539
235.20000000000	0.97411504441850	-166.80959479637
235.30000000000	0.97386411544906	-167.92845983379
235.40000000000	0.97341004092899	-169.11185183029
235.50000000000	0.97268537020575	-170.37570570925
235.60000000000	0.97159055266319	-171.74214401767
235.70000000000	0.96997293660391	-173.24283673637
235.80000000000	0.96758752803123	-174.92480642267
235.90000000000	0.96401875633782	-176.86102133116
236.00000000000	0.95851161436864	-179.17105331321
236.10000000000	0.94956915054445	177.93518027478
236.20000000000	0.93386294563433	174.05465852204
236.30000000000	0.90275086185007	168.31574681427
236.40000000000	0.82849518396775	158.51164767939
236.50000000000	0.59828893641954	138.11113089896
236.60000000000	0.099336882175790	-86.728518419404
236.70000000000	0.72392991936859	-127.84378663574
236.80000000000	0.90106233273390	-147.05626947393
236.90000000000	0.95300104578965	-156.47329518418
237.00000000000	0.97282208088597	-162.10821601504
237.10000000000	0.98191645965751	-166.00546704071
237.20000000000	0.98659860172680	-168.98347387481
237.30000000000	0.98916660305573	-171.42487505833
237.40000000000	0.99059165362668	-173.53084431506
237.50000000000	0.99132992836850	-175.41700416744
237.60000000000	0.99161177617541	-177.15461686179
237.70000000000	0.99155852310810	-178.79017595900
237.80000000000	0.99123446522750	179.64448769220
237.90000000000	0.99067184068483	178.12663853735
238.00000000000	0.98988355194505	176.63939754963
238.10000000000	0.98886993266087	175.16976933787
238.20000000000	0.98762243891623	173.70739156627
238.30000000000	0.98612566214415	172.24371381452
238.40000000000	0.98435837550643	170.77144088376
238.50000000000	0.98229399082603	169.28414394452
238.60000000000	0.97990063183104	167.77598104179
238.70000000000	0.97714093805175	166.24149051235
238.80000000000	0.97397166317811	164.67543404464
238.90000000000	0.97034310301731	163.07267424143
239.00000000000	0.96619837184069	161.42807672634
239.10000000000	0.96147253703277	159.73643025880
239.20000000000	0.95609161818258	157.99238068836
239.30000000000	0.94997145712061	156.19037631545
239.40000000000	0.94301646982440	154.32462360111
239.50000000000	0.93511830015476	152.38905336271
239.60000000000	0.92615441013970	150.37729872813
